[Measurement conditions]
Sample identification,
Comment - 1,"Configuration=Parallel Beam for 4inch holder, Owner=MRD, Creation date=2012/03/27 14:08:09"
Comment - 2,"Goniometer=PW3050/65 (Theta/2Theta); Minimum step size 2Theta:0.0001; Minimum step size Omega:0.0001"
Comment - 3,"Sample stage=MRD Cradle; Minimum step size Phi:0.01; Minimum step size Chi:0.01; Minimum step size X:0.01; Minimum step size Y:0.01; Minimum step size Z:0.001"
Comment - 4,"Diffractometer system=XPERT-PRO"
Comment - 5,"Measurement program=C:\PANalytical\Data Collector\Programs\Reflectivity_Batch.xrdmp, Created identifier={007932df-34e3-4485-9cdc-ce5737d00380}, Created by=User-1, Id=User-1, Creation date=2012/04/06 17:50:18, Modified identifier={7EA62F8F-4040-438C-8392-53DC77EF1B54}, Modified by=MRD, Id=WL:DESKTOP-LQ4LR9T:MRD, Modification date=2026/04/16 17:32:52"
Comment - 6,"Fine Calibration Offset for 2Theta = -0.0003 deg"
Comment - 7,"Batch program=C:\PANalytical\Data Collector\Programs\Reflectivity_Batch_4inch.xrdmp, Created identifier={960d4441-9b31-4165-bf03-2a9b383547c1}, Created by=User-1, Id=User-1, Creation date=2012/04/06 17:52:19, Modified identifier={1DDEFD67-F033-44A2-A541-9D9449C44B64}, Modified by=MRD, Id=WL:DESKTOP-LQ4LR9T:MRD, Modification date=2026/01/14 13:23:43"
Anode material,Cu
K-Alpha1 wavelength,1.5405980
K-Alpha2 wavelength,1.5444260
Ratio K-Alpha2/K-Alpha1,0.000
Monochromator used,YES
Generator voltage, 45
Tube current, 40
File date and time,29/4/2026 19:58
Unit cell,
h k l, 0 0 0
Scan axis,Omega-2Theta
Scan range,-0.10000,6.00000
Scan step size,0.0020000
Omega offset,0.0000
No. of points, 3050
Scan type,CONTINUOUS
Phi,0.00
Psi,-0.45
X,0.00
Y,0.00
Z,9.312
Time per step,2.00
[Scan points]
Angle, TimePerStep, Intensity, ESD
-0.09900, 2.00, 1.0, 1.0000
-0.09700, 2.00, 0.0, 0.0000
-0.09500, 2.00, 1.0, 1.0000
-0.09300, 2.00, 0.0, 0.0000
-0.09100, 2.00, 1.0, 1.0000
-0.08900, 2.00, 0.0, 0.0000
-0.08700, 2.00, 1.0, 1.0000
-0.08500, 2.00, 0.0, 0.0000
-0.08300, 2.00, 0.0, 0.0000
-0.08100, 2.00, 1.0, 1.0000
-0.07900, 2.00, 0.0, 0.0000
-0.07700, 2.00, 0.0, 0.0000
-0.07500, 2.00, 0.0, 0.0000
-0.07300, 2.00, 1.0, 1.0000
-0.07100, 2.00, 0.0, 0.0000
-0.06900, 2.00, 0.0, 0.0000
-0.06700, 2.00, 0.0, 0.0000
-0.06500, 2.00, 2.0, 1.4142
-0.06300, 2.00, 0.0, 0.0000
-0.06100, 2.00, 0.0, 0.0000
-0.05900, 2.00, 1.0, 1.0000
-0.05700, 2.00, 1.0, 1.0000
-0.05500, 2.00, 1.0, 1.0000
-0.05300, 2.00, 0.0, 0.0000
-0.05100, 2.00, 0.0, 0.0000
-0.04900, 2.00, 0.0, 0.0000
-0.04700, 2.00, 0.0, 0.0000
-0.04500, 2.00, 0.0, 0.0000
-0.04300, 2.00, 1.0, 1.0000
-0.04100, 2.00, 1.0, 1.0000
-0.03900, 2.00, 4.0, 2.0000
-0.03700, 2.00, 0.0, 0.0000
-0.03500, 2.00, 1.0, 1.0000
-0.03300, 2.00, 2.0, 1.4142
-0.03100, 2.00, 0.0, 0.0000
-0.02900, 2.00, 3.0, 1.7321
-0.02700, 2.00, 3.0, 1.7321
-0.02500, 2.00, 5.0, 2.2361
-0.02300, 2.00, 7.0, 2.6458
-0.02100, 2.00, 6.0, 2.4495
-0.01900, 2.00, 12.0, 3.4641
-0.01700, 2.00, 10.0, 3.1623
-0.01500, 2.00, 29.0, 5.3852
-0.01300, 2.00, 111.0, 10.5357
-0.01100, 2.00, 537.0, 23.1733
-0.00900, 2.00, 3083.0, 55.5248
-0.00700, 2.00, 17576.0, 132.5745
-0.00500, 2.00, 91628.0, 302.7012
-0.00300, 2.00, 388028.0, 622.9189
-0.00100, 2.00, 1159824.0, 9201.4755
0.00100, 2.00, 2599968.0, 13776.7073
0.00300, 2.00, 3772859.0, 16595.7436
0.00500, 2.00, 3682339.0, 16395.4490
0.00700, 2.00, 2886566.0, 14516.1744
0.00900, 2.00, 1930777.0, 11872.0984
0.01100, 2.00, 1205376.0, 9380.4290
0.01300, 2.00, 831947.0, 912.1113
0.01500, 2.00, 575470.0, 758.5974
0.01700, 2.00, 460982.0, 678.9566
0.01900, 2.00, 417440.0, 646.0960
0.02100, 2.00, 409650.0, 640.0391
0.02300, 2.00, 416461.0, 645.3379
0.02500, 2.00, 432651.0, 657.7621
0.02700, 2.00, 456828.0, 675.8905
0.02900, 2.00, 483018.0, 694.9950
0.03100, 2.00, 513938.0, 716.8947
0.03300, 2.00, 541163.0, 735.6378
0.03500, 2.00, 571546.0, 756.0066
0.03700, 2.00, 601127.0, 775.3238
0.03900, 2.00, 629510.0, 793.4167
0.04100, 2.00, 658137.0, 811.2564
0.04300, 2.00, 687448.0, 829.1248
0.04500, 2.00, 715961.0, 846.1448
0.04700, 2.00, 743342.0, 862.1728
0.04900, 2.00, 771259.0, 878.2135
0.05100, 2.00, 797585.0, 893.0761
0.05300, 2.00, 823996.0, 907.7423
0.05500, 2.00, 853005.0, 923.5827
0.05700, 2.00, 879835.0, 937.9952
0.05900, 2.00, 905124.0, 951.3801
0.06100, 2.00, 928054.0, 963.3556
0.06300, 2.00, 956553.0, 978.0353
0.06500, 2.00, 979057.0, 989.4731
0.06700, 2.00, 925494.0, 8219.5536
0.06900, 2.00, 955278.0, 8350.7661
0.07100, 2.00, 975280.0, 8437.7390
0.07300, 2.00, 995647.0, 8525.3874
0.07500, 2.00, 1018569.0, 8622.9657
0.07700, 2.00, 1040469.0, 8715.1728
0.07900, 2.00, 1062223.0, 8805.8094
0.08100, 2.00, 1068355.0, 8831.1899
0.08300, 2.00, 1088430.0, 8913.7753
0.08500, 2.00, 1123835.0, 9057.5910
0.08700, 2.00, 1130186.0, 9083.1480
0.08900, 2.00, 1146538.0, 9148.6214
0.09100, 2.00, 1168511.0, 9235.8705
0.09300, 2.00, 1189462.0, 9318.3006
0.09500, 2.00, 1211435.0, 9403.9755
0.09700, 2.00, 1234795.0, 9494.2106
0.09900, 2.00, 1248957.0, 9548.5005
0.10100, 2.00, 1288669.0, 9699.1153
0.10300, 2.00, 1295969.0, 9726.5481
0.10500, 2.00, 1307576.0, 9770.0076
0.10700, 2.00, 1330498.0, 9855.2704
0.10900, 2.00, 1337798.0, 9882.2697
0.11100, 2.00, 1346923.0, 9915.9154
0.11300, 2.00, 1374225.0, 10015.9086
0.11500, 2.00, 1391818.0, 10079.8172
0.11700, 2.00, 1422551.0, 10190.4967
0.11900, 2.00, 1435691.0, 10237.4530
0.12100, 2.00, 1422478.0, 10190.2352
0.12300, 2.00, 1472264.0, 10367.0281
0.12500, 2.00, 1474381.0, 10374.4789
0.12700, 2.00, 1491974.0, 10436.1919
0.12900, 2.00, 1510370.0, 10500.3338
0.13100, 2.00, 1510662.0, 10501.3488
0.13300, 2.00, 1516940.0, 10523.1469
0.13500, 2.00, 1565631.0, 10690.6998
0.13700, 2.00, 1557966.0, 10664.4980
0.13900, 2.00, 1577311.0, 10730.5034
0.14100, 2.00, 1580377.0, 10740.9274
0.14300, 2.00, 1622644.0, 10883.6121
0.14500, 2.00, 1619067.0, 10871.6094
0.14700, 2.00, 1648413.0, 10969.6923
0.14900, 2.00, 1635054.0, 10925.1518
0.15100, 2.00, 1663086.0, 11018.4063
0.15300, 2.00, 1681117.0, 11077.9755
0.15500, 2.00, 1706083.0, 11159.9310
0.15700, 2.00, 1712288.0, 11180.2068
0.15900, 2.00, 1718055.0, 11199.0185
0.16100, 2.00, 1755358.0, 11319.9441
0.16300, 2.00, 1747036.0, 11293.0788
0.16500, 2.00, 1758497.0, 11330.0609
0.16700, 2.00, 1772951.0, 11376.5295
0.16900, 2.00, 1792807.0, 11440.0573
0.17100, 2.00, 1804852.0, 11478.4231
0.17300, 2.00, 1837775.0, 11582.6411
0.17500, 2.00, 1859091.0, 11649.6199
0.17700, 2.00, 1840549.0, 11591.3794
0.17900, 2.00, 1871209.0, 11687.5257
0.18100, 2.00, 1863763.0, 11664.2488
0.18300, 2.00, 1893766.0, 11757.7599
0.18500, 2.00, 1891065.0, 11749.3721
0.18700, 2.00, 1903110.0, 11786.7311
0.18900, 2.00, 1906614.0, 11797.5770
0.19100, 2.00, 1912892.0, 11816.9842
0.19300, 2.00, 1925010.0, 11854.3549
0.19500, 2.00, 1940705.0, 11902.5823
0.19700, 2.00, 1943771.0, 11911.9806
0.19900, 2.00, 1966255.0, 11980.6767
0.20100, 2.00, 1975015.0, 12007.3350
0.20300, 2.00, 1966109.0, 11980.2319
0.20500, 2.00, 2001952.0, 12088.9411
0.20700, 2.00, 2009033.0, 12110.3018
0.20900, 2.00, 1994141.0, 12065.3344
0.21100, 2.00, 2021297.0, 12147.2088
0.21300, 2.00, 2029181.0, 12170.8756
0.21500, 2.00, 2041518.0, 12207.8177
0.21700, 2.00, 2044438.0, 12216.5451
0.21900, 2.00, 2049767.0, 12232.4565
0.22100, 2.00, 2052614.0, 12240.9486
0.22300, 2.00, 2048818.0, 12229.6244
0.22500, 2.00, 2083055.0, 12331.3833
0.22700, 2.00, 2062834.0, 12271.3847
0.22900, 2.00, 2086778.0, 12342.3982
0.23100, 2.00, 2082836.0, 12330.7351
0.23300, 2.00, 2082763.0, 12330.5190
0.23500, 2.00, 2063126.0, 12272.2532
0.23700, 2.00, 2104663.0, 12395.1764
0.23900, 2.00, 2085318.0, 12338.0798
0.24100, 2.00, 2078748.0, 12318.6283
0.24300, 2.00, 2069915.0, 12292.4284
0.24500, 2.00, 2076485.0, 12311.9213
0.24700, 2.00, 2099115.0, 12378.8285
0.24900, 2.00, 2066630.0, 12282.6703
0.25100, 2.00, 2069404.0, 12290.9110
0.25300, 2.00, 2065097.0, 12278.1139
0.25500, 2.00, 2091231.0, 12355.5600
0.25700, 2.00, 2068674.0, 12288.7429
0.25900, 2.00, 2038233.0, 12197.9920
0.26100, 2.00, 2024509.0, 12156.8564
0.26300, 2.00, 2026626.0, 12163.2108
0.26500, 2.00, 1996915.0, 12073.7233
0.26700, 2.00, 1992827.0, 12061.3586
0.26900, 2.00, 1995820.0, 12070.4126
0.27100, 2.00, 1928587.0, 11865.3635
0.27300, 2.00, 1922820.0, 11847.6099
0.27500, 2.00, 1873837.0, 11695.7300
0.27700, 2.00, 1784120.0, 11412.3074
0.27900, 2.00, 1720610.0, 11207.3427
0.28100, 2.00, 1612643.0, 10850.0202
0.28300, 2.00, 1499712.0, 10463.2202
0.28500, 2.00, 1379408.0, 10034.7787
0.28700, 2.00, 1248227.0, 9545.7096
0.28900, 2.00, 1137413.0, 9112.1429
0.29100, 2.00, 1008568.0, 8580.5282
0.29300, 2.00, 935422.0, 8263.5226
0.29500, 2.00, 849501.0, 7874.8697
0.29700, 2.00, 842131.0, 917.6770
0.29900, 2.00, 772515.0, 878.9283
0.30100, 2.00, 716059.0, 846.2027
0.30300, 2.00, 665159.0, 815.5728
0.30500, 2.00, 617743.0, 785.9663
0.30700, 2.00, 576175.0, 759.0619
0.30900, 2.00, 538197.0, 733.6191
0.31100, 2.00, 504426.0, 710.2295
0.31300, 2.00, 472951.0, 687.7143
0.31500, 2.00, 448334.0, 669.5775
0.31700, 2.00, 422433.0, 649.9485
0.31900, 2.00, 401518.0, 633.6545
0.32100, 2.00, 380828.0, 617.1126
0.32300, 2.00, 361081.0, 600.9002
0.32500, 2.00, 345812.0, 588.0578
0.32700, 2.00, 329433.0, 573.9625
0.32900, 2.00, 312497.0, 559.0143
0.33100, 2.00, 300113.0, 547.8257
0.33300, 2.00, 288160.0, 536.8054
0.33500, 2.00, 276061.0, 525.4151
0.33700, 2.00, 263227.0, 513.0565
0.33900, 2.00, 252038.0, 502.0339
0.34100, 2.00, 242886.0, 492.8347
0.34300, 2.00, 234020.0, 483.7561
0.34500, 2.00, 224086.0, 473.3772
0.34700, 2.00, 214413.0, 463.0475
0.34900, 2.00, 205810.0, 453.6629
0.35100, 2.00, 200912.0, 448.2321
0.35300, 2.00, 194433.0, 440.9456
0.35500, 2.00, 186237.0, 431.5519
0.35700, 2.00, 177105.0, 420.8384
0.35900, 2.00, 169755.0, 412.0133
0.36100, 2.00, 167887.0, 409.7402
0.36300, 2.00, 163161.0, 403.9319
0.36500, 2.00, 156013.0, 394.9848
0.36700, 2.00, 148836.0, 385.7927
0.36900, 2.00, 143659.0, 379.0237
0.37100, 2.00, 141639.0, 376.3496
0.37300, 2.00, 138917.0, 372.7157
0.37500, 2.00, 132763.0, 364.3666
0.37700, 2.00, 123964.0, 352.0852
0.37900, 2.00, 120241.0, 346.7578
0.38100, 2.00, 117920.0, 343.3948
0.38300, 2.00, 117712.0, 343.0918
0.38500, 2.00, 113772.0, 337.3011
0.38700, 2.00, 107946.0, 328.5514
0.38900, 2.00, 103021.0, 320.9688
0.39100, 2.00, 102580.0, 320.2811
0.39300, 2.00, 102437.0, 320.0578
0.39500, 2.00, 101149.0, 318.0393
0.39700, 2.00, 96363.0, 310.4239
0.39900, 2.00, 91094.0, 301.8178
0.40100, 2.00, 88450.0, 297.4054
0.40300, 2.00, 88645.0, 297.7331
0.40500, 2.00, 88731.0, 297.8775
0.40700, 2.00, 85924.0, 293.1280
0.40900, 2.00, 82056.0, 286.4542
0.41100, 2.00, 76748.0, 277.0343
0.41300, 2.00, 76204.0, 276.0507
0.41500, 2.00, 77002.0, 277.4923
0.41700, 2.00, 76986.0, 277.4635
0.41900, 2.00, 74314.0, 272.6059
0.42100, 2.00, 70192.0, 264.9377
0.42300, 2.00, 66682.0, 258.2286
0.42500, 2.00, 65916.0, 256.7411
0.42700, 2.00, 66528.0, 257.9302
0.42900, 2.00, 67142.0, 259.1177
0.43100, 2.00, 64139.0, 253.2568
0.43300, 2.00, 59324.0, 243.5652
0.43500, 2.00, 57265.0, 239.3011
0.43700, 2.00, 56531.0, 237.7625
0.43900, 2.00, 58861.0, 242.6129
0.44100, 2.00, 59122.0, 243.1502
0.44300, 2.00, 56662.0, 238.0378
0.44500, 2.00, 52173.0, 228.4141
0.44700, 2.00, 50065.0, 223.7521
0.44900, 2.00, 49883.0, 223.3450
0.45100, 2.00, 52019.0, 228.0767
0.45300, 2.00, 52022.0, 228.0833
0.45500, 2.00, 50412.0, 224.5262
0.45700, 2.00, 46414.0, 215.4391
0.45900, 2.00, 44094.0, 209.9857
0.46100, 2.00, 43784.0, 209.2463
0.46300, 2.00, 45135.0, 212.4500
0.46500, 2.00, 46443.0, 215.5064
0.46700, 2.00, 45812.0, 214.0374
0.46900, 2.00, 42671.0, 206.5696
0.47100, 2.00, 39698.0, 199.2436
0.47300, 2.00, 38119.0, 195.2409
0.47500, 2.00, 39218.0, 198.0354
0.47700, 2.00, 40992.0, 202.4648
0.47900, 2.00, 41218.0, 203.0222
0.48100, 2.00, 38520.0, 196.2651
0.48300, 2.00, 35307.0, 187.9016
0.48500, 2.00, 33637.0, 183.4039
0.48700, 2.00, 33634.0, 183.3957
0.48900, 2.00, 35502.0, 188.4197
0.49100, 2.00, 36614.0, 191.3479
0.49300, 2.00, 35321.0, 187.9388
0.49500, 2.00, 32899.0, 181.3808
0.49700, 2.00, 30024.0, 173.2743
0.49900, 2.00, 29680.0, 172.2788
0.50100, 2.00, 30940.0, 175.8977
0.50300, 2.00, 32719.0, 180.8839
0.50500, 2.00, 32977.0, 181.5957
0.50700, 2.00, 31739.0, 178.1544
0.50900, 2.00, 28650.0, 169.2631
0.51100, 2.00, 26739.0, 163.5206
0.51300, 2.00, 26610.0, 163.1257
0.51500, 2.00, 28465.0, 168.7157
0.51700, 2.00, 29517.0, 171.8051
0.51900, 2.00, 29245.0, 171.0117
0.52100, 2.00, 27200.0, 164.9242
0.52300, 2.00, 24643.0, 156.9809
0.52500, 2.00, 23198.0, 152.3089
0.52700, 2.00, 24128.0, 155.3319
0.52900, 2.00, 25782.0, 160.5677
0.53100, 2.00, 26948.0, 164.1585
0.53300, 2.00, 25930.0, 161.0279
0.53500, 2.00, 23933.0, 154.7029
0.53700, 2.00, 21523.0, 146.7072
0.53900, 2.00, 20492.0, 143.1503
0.54100, 2.00, 21470.0, 146.5264
0.54300, 2.00, 23024.0, 151.7366
0.54500, 2.00, 23824.0, 154.3503
0.54700, 2.00, 22908.0, 151.3539
0.54900, 2.00, 20668.0, 143.7637
0.55100, 2.00, 18834.0, 137.2370
0.55300, 2.00, 18680.0, 136.6748
0.55500, 2.00, 20038.0, 141.5556
0.55700, 2.00, 21625.0, 147.0544
0.55900, 2.00, 22009.0, 148.3543
0.56100, 2.00, 20652.0, 143.7080
0.56300, 2.00, 18753.0, 136.9416
0.56500, 2.00, 16882.0, 129.9308
0.56700, 2.00, 16719.0, 129.3020
0.56900, 2.00, 18048.0, 134.3428
0.57100, 2.00, 19432.0, 139.3987
0.57300, 2.00, 19826.0, 140.8048
0.57500, 2.00, 18578.0, 136.3011
0.57700, 2.00, 16526.0, 128.5535
0.57900, 2.00, 14607.0, 120.8594
0.58100, 2.00, 15091.0, 122.8454
0.58300, 2.00, 16297.0, 127.6597
0.58500, 2.00, 17854.0, 133.6189
0.58700, 2.00, 18088.0, 134.4916
0.58900, 2.00, 16766.0, 129.4836
0.59100, 2.00, 15228.0, 123.4018
0.59300, 2.00, 13812.0, 117.5245
0.59500, 2.00, 13996.0, 118.3047
0.59700, 2.00, 15051.0, 122.6825
0.59900, 2.00, 16197.0, 127.2674
0.60100, 2.00, 16389.0, 128.0195
0.60300, 2.00, 15161.0, 123.1300
0.60500, 2.00, 13353.0, 115.5552
0.60700, 2.00, 12336.0, 111.0675
0.60900, 2.00, 12879.0, 113.4857
0.61100, 2.00, 14181.0, 119.0840
0.61300, 2.00, 15404.0, 124.1129
0.61500, 2.00, 15450.0, 124.2980
0.61700, 2.00, 14331.0, 119.7122
0.61900, 2.00, 12555.0, 112.0491
0.62100, 2.00, 11742.0, 108.3605
0.62300, 2.00, 11959.0, 109.3572
0.62500, 2.00, 13123.0, 114.5557
0.62700, 2.00, 14421.0, 120.0875
0.62900, 2.00, 14738.0, 121.4002
0.63100, 2.00, 13505.0, 116.2110
0.63300, 2.00, 11604.0, 107.7219
0.63500, 2.00, 10379.0, 101.8774
0.63700, 2.00, 10872.0, 104.2689
0.63900, 2.00, 11988.0, 109.4897
0.64100, 2.00, 13363.0, 115.5984
0.64300, 2.00, 13523.0, 116.2884
0.64500, 2.00, 12676.0, 112.5877
0.64700, 2.00, 10888.0, 104.3456
0.64900, 2.00, 9814.0, 99.0656
0.65100, 2.00, 9989.0, 99.9450
0.65300, 2.00, 11196.0, 105.8112
0.65500, 2.00, 12530.0, 111.9375
0.65700, 2.00, 12856.0, 113.3843
0.65900, 2.00, 11970.0, 109.4075
0.66100, 2.00, 10334.0, 101.6563
0.66300, 2.00, 9085.0, 95.3153
0.66500, 2.00, 8931.0, 94.5040
0.66700, 2.00, 10061.0, 100.3045
0.66900, 2.00, 11403.0, 106.7848
0.67100, 2.00, 12039.0, 109.7224
0.67300, 2.00, 11369.0, 106.6255
0.67500, 2.00, 9741.0, 98.6965
0.67700, 2.00, 8543.0, 92.4284
0.67900, 2.00, 8371.0, 91.4932
0.68100, 2.00, 9409.0, 97.0000
0.68300, 2.00, 10791.0, 103.8797
0.68500, 2.00, 11353.0, 106.5505
0.68700, 2.00, 10874.0, 104.2785
0.68900, 2.00, 9372.0, 96.8091
0.69100, 2.00, 8071.0, 89.8387
0.69300, 2.00, 7730.0, 87.9204
0.69500, 2.00, 8434.0, 91.8368
0.69700, 2.00, 9637.0, 98.1682
0.69900, 2.00, 10357.0, 101.7693
0.70100, 2.00, 10085.0, 100.4241
0.70300, 2.00, 8756.0, 93.5735
0.70500, 2.00, 7742.0, 87.9886
0.70700, 2.00, 7063.0, 84.0417
0.70900, 2.00, 7615.0, 87.2640
0.71100, 2.00, 8734.0, 93.4559
0.71300, 2.00, 9844.0, 99.2169
0.71500, 2.00, 9752.0, 98.7522
0.71700, 2.00, 8663.0, 93.0752
0.71900, 2.00, 7359.0, 85.7846
0.72100, 2.00, 6546.0, 80.9074
0.72300, 2.00, 6804.0, 82.4864
0.72500, 2.00, 8265.0, 90.9120
0.72700, 2.00, 9290.0, 96.3846
0.72900, 2.00, 9468.0, 97.3036
0.73100, 2.00, 8649.0, 93.0000
0.73300, 2.00, 7416.0, 86.1162
0.73500, 2.00, 6380.0, 79.8749
0.73700, 2.00, 6251.0, 79.0633
0.73900, 2.00, 7240.0, 85.0882
0.74100, 2.00, 8524.0, 92.3255
0.74300, 2.00, 9058.0, 95.1735
0.74500, 2.00, 8920.0, 94.4458
0.74700, 2.00, 7624.0, 87.3155
0.74900, 2.00, 6374.0, 79.8373
0.75100, 2.00, 6044.0, 77.7432
0.75300, 2.00, 6608.0, 81.2896
0.75500, 2.00, 7889.0, 88.8200
0.75700, 2.00, 8663.0, 93.0752
0.75900, 2.00, 8650.0, 93.0054
0.76100, 2.00, 7685.0, 87.6641
0.76300, 2.00, 6357.0, 79.7308
0.76500, 2.00, 5598.0, 74.8198
0.76700, 2.00, 5789.0, 76.0855
0.76900, 2.00, 6878.0, 82.9337
0.77100, 2.00, 8120.0, 90.1110
0.77300, 2.00, 8456.0, 91.9565
0.77500, 2.00, 8019.0, 89.5489
0.77700, 2.00, 6802.0, 82.4742
0.77900, 2.00, 5813.0, 76.2430
0.78100, 2.00, 5427.0, 73.6682
0.78300, 2.00, 6347.0, 79.6681
0.78500, 2.00, 7700.0, 87.7496
0.78700, 2.00, 8393.0, 91.6133
0.78900, 2.00, 8346.0, 91.3564
0.79100, 2.00, 7456.0, 86.3481
0.79300, 2.00, 6124.0, 78.2560
0.79500, 2.00, 5501.0, 74.1687
0.79700, 2.00, 5636.0, 75.0733
0.79900, 2.00, 6731.0, 82.0427
0.80100, 2.00, 7566.0, 86.9828
0.80300, 2.00, 8083.0, 89.9055
0.80500, 2.00, 7293.0, 85.3991
0.80700, 2.00, 6018.0, 77.5758
0.80900, 2.00, 4937.0, 70.2638
0.81100, 2.00, 4887.0, 69.9071
0.81300, 2.00, 5628.0, 75.0200
0.81500, 2.00, 6825.0, 82.6136
0.81700, 2.00, 7410.0, 86.0814
0.81900, 2.00, 7242.0, 85.0999
0.82100, 2.00, 6415.0, 80.0937
0.82300, 2.00, 5229.0, 72.3118
0.82500, 2.00, 4868.0, 69.7711
0.82700, 2.00, 5432.0, 73.7021
0.82900, 2.00, 6534.0, 80.8332
0.83100, 2.00, 7516.0, 86.6949
0.83300, 2.00, 7632.0, 87.3613
0.83500, 2.00, 6700.0, 81.8535
0.83700, 2.00, 5444.0, 73.7835
0.83900, 2.00, 4575.0, 67.6387
0.84100, 2.00, 4869.0, 69.7782
0.84300, 2.00, 5590.0, 74.7663
0.84500, 2.00, 6867.0, 82.8674
0.84700, 2.00, 7389.0, 85.9593
0.84900, 2.00, 6929.0, 83.2406
0.85100, 2.00, 6087.0, 78.0192
0.85300, 2.00, 4908.0, 70.0571
0.85500, 2.00, 4535.0, 67.3424
0.85700, 2.00, 5210.0, 72.1803
0.85900, 2.00, 6217.0, 78.8480
0.86100, 2.00, 7207.0, 84.8941
0.86300, 2.00, 7034.0, 83.8689
0.86500, 2.00, 6533.0, 80.8270
0.86700, 2.00, 5124.0, 71.5821
0.86900, 2.00, 4400.0, 66.3325
0.87100, 2.00, 4434.0, 66.5883
0.87300, 2.00, 5384.0, 73.3757
0.87500, 2.00, 6628.0, 81.4125
0.87700, 2.00, 7194.0, 84.8175
0.87900, 2.00, 6657.0, 81.5904
0.88100, 2.00, 5507.0, 74.2092
0.88300, 2.00, 4529.0, 67.2978
0.88500, 2.00, 4336.0, 65.8483
0.88700, 2.00, 4813.0, 69.3758
0.88900, 2.00, 5999.0, 77.4532
0.89100, 2.00, 6949.0, 83.3607
0.89300, 2.00, 6829.0, 82.6378
0.89500, 2.00, 5991.0, 77.4016
0.89700, 2.00, 4949.0, 70.3491
0.89900, 2.00, 4088.0, 63.9375
0.90100, 2.00, 4418.0, 66.4680
0.90300, 2.00, 5505.0, 74.1957
0.90500, 2.00, 6671.0, 81.6762
0.90700, 2.00, 7311.0, 85.5044
0.90900, 2.00, 6668.0, 81.6578
0.91100, 2.00, 5607.0, 74.8799
0.91300, 2.00, 4613.0, 67.9191
0.91500, 2.00, 4363.0, 66.0530
0.91700, 2.00, 5000.0, 70.7107
0.91900, 2.00, 6221.0, 78.8733
0.92100, 2.00, 7166.0, 84.6522
0.92300, 2.00, 7241.0, 85.0941
0.92500, 2.00, 6459.0, 80.3679
0.92700, 2.00, 5089.0, 71.3372
0.92900, 2.00, 4434.0, 66.5883
0.93100, 2.00, 4480.0, 66.9328
0.93300, 2.00, 5424.0, 73.6478
0.93500, 2.00, 6589.0, 81.1727
0.93700, 2.00, 7118.0, 84.3682
0.93900, 2.00, 6631.0, 81.4310
0.94100, 2.00, 5431.0, 73.6953
0.94300, 2.00, 4574.0, 67.6314
0.94500, 2.00, 4240.0, 65.1153
0.94700, 2.00, 4948.0, 70.3420
0.94900, 2.00, 6138.0, 78.3454
0.95100, 2.00, 7167.0, 84.6581
0.95300, 2.00, 7202.0, 84.8646
0.95500, 2.00, 6352.0, 79.6994
0.95700, 2.00, 5007.0, 70.7602
0.95900, 2.00, 4207.0, 64.8614
0.96100, 2.00, 4437.0, 66.6108
0.96300, 2.00, 5439.0, 73.7496
0.96500, 2.00, 6734.0, 82.0610
0.96700, 2.00, 7514.0, 86.6833
0.96900, 2.00, 7135.0, 84.4689
0.97100, 2.00, 5787.0, 76.0723
0.97300, 2.00, 4670.0, 68.3374
0.97500, 2.00, 4417.0, 66.4605
0.97700, 2.00, 4886.0, 69.8999
0.97900, 2.00, 6395.0, 79.9687
0.98100, 2.00, 7793.0, 88.2780
0.98300, 2.00, 7784.0, 88.2270
0.98500, 2.00, 6986.0, 83.5823
0.98700, 2.00, 5472.0, 73.9730
0.98900, 2.00, 4647.0, 68.1689
0.99100, 2.00, 4434.0, 66.5883
0.99300, 2.00, 5208.0, 72.1665
0.99500, 2.00, 6608.0, 81.2896
0.99700, 2.00, 7625.0, 87.3212
0.99900, 2.00, 7263.0, 85.2232
1.00100, 2.00, 6533.0, 80.8270
1.00300, 2.00, 5062.0, 71.1477
1.00500, 2.00, 4424.0, 66.5132
1.00700, 2.00, 4645.0, 68.1542
1.00900, 2.00, 6116.0, 78.2049
1.01100, 2.00, 7526.0, 86.7525
1.01300, 2.00, 8222.0, 90.6752
1.01500, 2.00, 7662.0, 87.5329
1.01700, 2.00, 6260.0, 79.1202
1.01900, 2.00, 5020.0, 70.8520
1.02100, 2.00, 4589.0, 67.7422
1.02300, 2.00, 5465.0, 73.9256
1.02500, 2.00, 7004.0, 83.6899
1.02700, 2.00, 8377.0, 91.5260
1.02900, 2.00, 8623.0, 92.8601
1.03100, 2.00, 7800.0, 88.3176
1.03300, 2.00, 6372.0, 79.8248
1.03500, 2.00, 4883.0, 69.8785
1.03700, 2.00, 5194.0, 72.0694
1.03900, 2.00, 6424.0, 80.1499
1.04100, 2.00, 8122.0, 90.1221
1.04300, 2.00, 9195.0, 95.8906
1.04500, 2.00, 9324.0, 96.5609
1.04700, 2.00, 7953.0, 89.1796
1.04900, 2.00, 5992.0, 77.4080
1.05100, 2.00, 4796.0, 69.2532
1.05300, 2.00, 5049.0, 71.0563
1.05500, 2.00, 6445.0, 80.2808
1.05700, 2.00, 8062.0, 89.7886
1.05900, 2.00, 9020.0, 94.9737
1.06100, 2.00, 8617.0, 92.8278
1.06300, 2.00, 7251.0, 85.1528
1.06500, 2.00, 5723.0, 75.6505
1.06700, 2.00, 5271.0, 72.6017
1.06900, 2.00, 6035.0, 77.6853
1.07100, 2.00, 8175.0, 90.4157
1.07300, 2.00, 9879.0, 99.3932
1.07500, 2.00, 10442.0, 102.1861
1.07700, 2.00, 9440.0, 97.1597
1.07900, 2.00, 7500.0, 86.6025
1.08100, 2.00, 5884.0, 76.7072
1.08300, 2.00, 5770.0, 75.9605
1.08500, 2.00, 7107.0, 84.3030
1.08700, 2.00, 9143.0, 95.6190
1.08900, 2.00, 10465.0, 102.2986
1.09100, 2.00, 10541.0, 102.6694
1.09300, 2.00, 9119.0, 95.4935
1.09500, 2.00, 7119.0, 84.3742
1.09700, 2.00, 6058.0, 77.8332
1.09900, 2.00, 6515.0, 80.7155
1.10100, 2.00, 8559.0, 92.5149
1.10300, 2.00, 10679.0, 103.3392
1.10500, 2.00, 11904.0, 109.1055
1.10700, 2.00, 11233.0, 105.9858
1.10900, 2.00, 9312.0, 96.4987
1.11100, 2.00, 7255.0, 85.1763
1.11300, 2.00, 6344.0, 79.6492
1.11500, 2.00, 7656.0, 87.4986
1.11700, 2.00, 10015.0, 100.0750
1.11900, 2.00, 12320.0, 110.9955
1.12100, 2.00, 12813.0, 113.1945
1.12300, 2.00, 11387.0, 106.7099
1.12500, 2.00, 9045.0, 95.1052
1.12700, 2.00, 7344.0, 85.6971
1.12900, 2.00, 7631.0, 87.3556
1.13100, 2.00, 9968.0, 99.8399
1.13300, 2.00, 12887.0, 113.5209
1.13500, 2.00, 14827.0, 121.7662
1.13700, 2.00, 14706.0, 121.2683
1.13900, 2.00, 12234.0, 110.6074
1.14100, 2.00, 9404.0, 96.9742
1.14300, 2.00, 7969.0, 89.2693
1.14500, 2.00, 8787.0, 93.7390
1.14700, 2.00, 11422.0, 106.8738
1.14900, 2.00, 14443.0, 120.1790
1.15100, 2.00, 16215.0, 127.3381
1.15300, 2.00, 15074.0, 122.7762
1.15500, 2.00, 12223.0, 110.5577
1.15700, 2.00, 9923.0, 99.6143
1.15900, 2.00, 9484.0, 97.3858
1.16100, 2.00, 12281.0, 110.8197
1.16300, 2.00, 16749.0, 129.4179
1.16500, 2.00, 20338.0, 142.6114
1.16700, 2.00, 21487.0, 146.5844
1.16900, 2.00, 18852.0, 137.3026
1.17100, 2.00, 14911.0, 122.1106
1.17300, 2.00, 11951.0, 109.3206
1.17500, 2.00, 11620.0, 107.7961
1.17700, 2.00, 15062.0, 122.7273
1.17900, 2.00, 19707.0, 140.3816
1.18100, 2.00, 22813.0, 151.0397
1.18300, 2.00, 22469.0, 149.8966
1.18500, 2.00, 19515.0, 139.6961
1.18700, 2.00, 15296.0, 123.6770
1.18900, 2.00, 13228.0, 115.0130
1.19100, 2.00, 15506.0, 124.5231
1.19300, 2.00, 20183.0, 142.0669
1.19500, 2.00, 25273.0, 158.9748
1.19700, 2.00, 27702.0, 166.4392
1.19900, 2.00, 26041.0, 161.3722
1.20100, 2.00, 21149.0, 145.4270
1.20300, 2.00, 16840.0, 129.7690
1.20500, 2.00, 17011.0, 130.4262
1.20700, 2.00, 22146.0, 148.8153
1.20900, 2.00, 30383.0, 174.3072
1.21100, 2.00, 36611.0, 191.3400
1.21300, 2.00, 38257.0, 195.5940
1.21500, 2.00, 33916.0, 184.1630
1.21700, 2.00, 26461.0, 162.6684
1.21900, 2.00, 21996.0, 148.3105
1.22100, 2.00, 24087.0, 155.1999
1.22300, 2.00, 32963.0, 181.5572
1.22500, 2.00, 44257.0, 210.3735
1.22700, 2.00, 51968.0, 227.9649
1.22900, 2.00, 51565.0, 227.0793
1.23100, 2.00, 43695.0, 209.0335
1.23300, 2.00, 34682.0, 186.2310
1.23500, 2.00, 32413.0, 180.0361
1.23700, 2.00, 42534.0, 206.2377
1.23900, 2.00, 62424.0, 249.8480
1.24100, 2.00, 82786.0, 287.7256
1.24300, 2.00, 93797.0, 306.2630
1.24500, 2.00, 90883.0, 301.4681
1.24700, 2.00, 76007.0, 275.6937
1.24900, 2.00, 62516.0, 250.0320
1.25100, 2.00, 65425.0, 255.7831
1.25300, 2.00, 93209.0, 305.3015
1.25500, 2.00, 138643.0, 372.3480
1.25700, 2.00, 184637.0, 429.6941
1.25900, 2.00, 208090.0, 456.1688
1.26100, 2.00, 199027.0, 446.1244
1.26300, 2.00, 168841.0, 410.9027
1.26500, 2.00, 143975.0, 379.4404
1.26700, 2.00, 161327.0, 401.6553
1.26900, 2.00, 241720.0, 491.6503
1.27100, 2.00, 369395.0, 607.7787
1.27300, 2.00, 498551.0, 706.0814
1.27500, 2.00, 577765.0, 760.1085
1.27700, 2.00, 570132.0, 755.0709
1.27900, 2.00, 509281.0, 713.6393
1.28100, 2.00, 479994.0, 692.8160
1.28300, 2.00, 599533.0, 774.2952
1.28500, 2.00, 937423.0, 968.2061
1.28700, 2.00, 1346485.0, 9914.3031
1.28900, 2.00, 1882378.0, 11722.3545
1.29100, 2.00, 2318845.0, 13010.5989
1.29300, 2.00, 2633110.0, 13864.2356
1.29500, 2.00, 2801010.0, 14299.4311
1.29700, 2.00, 2887588.0, 14518.7439
1.29900, 2.00, 2893720.0, 14534.1515
1.30100, 2.00, 2843423.0, 14407.2856
1.30300, 2.00, 2724944.0, 14103.9325
1.30500, 2.00, 2557482.0, 13663.6813
1.30700, 2.00, 2316217.0, 13003.2243
1.30900, 2.00, 2037722.0, 12196.4628
1.31100, 2.00, 1682942.0, 11083.9869
1.31300, 2.00, 1326775.0, 9841.4722
1.31500, 2.00, 961994.0, 8380.0693
1.31700, 2.00, 720541.0, 848.8469
1.31900, 2.00, 472098.0, 687.0939
1.32100, 2.00, 311110.0, 557.7724
1.32300, 2.00, 218738.0, 467.6943
1.32500, 2.00, 162439.0, 403.0372
1.32700, 2.00, 124592.0, 352.9759
1.32900, 2.00, 98532.0, 313.8981
1.33100, 2.00, 84436.0, 290.5787
1.33300, 2.00, 80990.0, 284.5874
1.33500, 2.00, 82690.0, 287.5587
1.33700, 2.00, 82342.0, 286.9530
1.33900, 2.00, 74863.0, 273.6110
1.34100, 2.00, 61970.0, 248.9377
1.34300, 2.00, 46762.0, 216.2452
1.34500, 2.00, 35672.0, 188.8703
1.34700, 2.00, 31500.0, 177.4824
1.34900, 2.00, 31991.0, 178.8603
1.35100, 2.00, 35414.0, 188.1861
1.35300, 2.00, 35910.0, 189.4993
1.35500, 2.00, 32638.0, 180.6599
1.35700, 2.00, 26928.0, 164.0975
1.35900, 2.00, 21132.0, 145.3685
1.36100, 2.00, 18180.0, 134.8332
1.36300, 2.00, 18919.0, 137.5464
1.36500, 2.00, 21430.0, 146.3899
1.36700, 2.00, 24075.0, 155.1612
1.36900, 2.00, 23907.0, 154.6189
1.37100, 2.00, 21032.0, 145.0241
1.37300, 2.00, 16612.0, 128.8875
1.37500, 2.00, 12479.0, 111.7094
1.37700, 2.00, 10884.0, 104.3264
1.37900, 2.00, 11011.0, 104.9333
1.38100, 2.00, 12316.0, 110.9775
1.38300, 2.00, 13172.0, 114.7693
1.38500, 2.00, 12802.0, 113.1459
1.38700, 2.00, 10485.0, 102.3963
1.38900, 2.00, 8164.0, 90.3549
1.39100, 2.00, 6548.0, 80.9197
1.39300, 2.00, 6259.0, 79.1138
1.39500, 2.00, 7147.0, 84.5399
1.39700, 2.00, 8556.0, 92.4986
1.39900, 2.00, 9093.0, 95.3572
1.40100, 2.00, 8424.0, 91.7824
1.40300, 2.00, 7046.0, 83.9405
1.40500, 2.00, 5328.0, 72.9932
1.40700, 2.00, 4325.0, 65.7647
1.40900, 2.00, 4143.0, 64.3661
1.41100, 2.00, 4693.0, 68.5055
1.41300, 2.00, 5482.0, 74.0405
1.41500, 2.00, 5607.0, 74.8799
1.41700, 2.00, 4971.0, 70.5053
1.41900, 2.00, 3959.0, 62.9206
1.42100, 2.00, 3014.0, 54.8999
1.42300, 2.00, 2595.0, 50.9411
1.42500, 2.00, 3006.0, 54.8270
1.42700, 2.00, 3680.0, 60.6630
1.42900, 2.00, 4040.0, 63.5610
1.43100, 2.00, 4032.0, 63.4980
1.43300, 2.00, 3350.0, 57.8792
1.43500, 2.00, 2444.0, 49.4368
1.43700, 2.00, 1910.0, 43.7035
1.43900, 2.00, 1944.0, 44.0908
1.44100, 2.00, 2389.0, 48.8774
1.44300, 2.00, 3035.0, 55.0908
1.44500, 2.00, 3438.0, 58.6345
1.44700, 2.00, 3349.0, 57.8705
1.44900, 2.00, 2730.0, 52.2494
1.45100, 2.00, 2038.0, 45.1442
1.45300, 2.00, 1658.0, 40.7185
1.45500, 2.00, 1577.0, 39.7115
1.45700, 2.00, 2171.0, 46.5940
1.45900, 2.00, 2534.0, 50.3389
1.46100, 2.00, 2611.0, 51.0979
1.46300, 2.00, 2502.0, 50.0200
1.46500, 2.00, 2001.0, 44.7325
1.46700, 2.00, 1556.0, 39.4462
1.46900, 2.00, 1167.0, 34.1614
1.47100, 2.00, 1216.0, 34.8712
1.47300, 2.00, 1588.0, 39.8497
1.47500, 2.00, 1809.0, 42.5323
1.47700, 2.00, 2055.0, 45.3321
1.47900, 2.00, 1961.0, 44.2832
1.48100, 2.00, 1562.0, 39.5221
1.48300, 2.00, 1151.0, 33.9264
1.48500, 2.00, 943.0, 30.7083
1.48700, 2.00, 1037.0, 32.2025
1.48900, 2.00, 1265.0, 35.5668
1.49100, 2.00, 1585.0, 39.8121
1.49300, 2.00, 1659.0, 40.7308
1.49500, 2.00, 1528.0, 39.0896
1.49700, 2.00, 1190.0, 34.4964
1.49900, 2.00, 909.0, 30.1496
1.50100, 2.00, 718.0, 26.7955
1.50300, 2.00, 836.0, 28.9137
1.50500, 2.00, 990.0, 31.4643
1.50700, 2.00, 1290.0, 35.9166
1.50900, 2.00, 1305.0, 36.1248
1.51100, 2.00, 1190.0, 34.4964
1.51300, 2.00, 990.0, 31.4643
1.51500, 2.00, 690.0, 26.2679
1.51700, 2.00, 582.0, 24.1247
1.51900, 2.00, 638.0, 25.2587
1.52100, 2.00, 774.0, 27.8209
1.52300, 2.00, 933.0, 30.5450
1.52500, 2.00, 1032.0, 32.1248
1.52700, 2.00, 916.0, 30.2655
1.52900, 2.00, 703.0, 26.5141
1.53100, 2.00, 538.0, 23.1948
1.53300, 2.00, 434.0, 20.8327
1.53500, 2.00, 510.0, 22.5832
1.53700, 2.00, 672.0, 25.9230
1.53900, 2.00, 800.0, 28.2843
1.54100, 2.00, 831.0, 28.8271
1.54300, 2.00, 756.0, 27.4955
1.54500, 2.00, 574.0, 23.9583
1.54700, 2.00, 473.0, 21.7486
1.54900, 2.00, 365.0, 19.1050
1.55100, 2.00, 476.0, 21.8174
1.55300, 2.00, 646.0, 25.4165
1.55500, 2.00, 772.0, 27.7849
1.55700, 2.00, 739.0, 27.1846
1.55900, 2.00, 706.0, 26.5707
1.56100, 2.00, 514.0, 22.6716
1.56300, 2.00, 385.0, 19.6214
1.56500, 2.00, 337.0, 18.3576
1.56700, 2.00, 344.0, 18.5472
1.56900, 2.00, 450.0, 21.2132
1.57100, 2.00, 522.0, 22.8473
1.57300, 2.00, 494.0, 22.2261
1.57500, 2.00, 400.0, 20.0000
1.57700, 2.00, 336.0, 18.3303
1.57900, 2.00, 275.0, 16.5831
1.58100, 2.00, 276.0, 16.6132
1.58300, 2.00, 332.0, 18.2209
1.58500, 2.00, 464.0, 21.5407
1.58700, 2.00, 543.0, 23.3024
1.58900, 2.00, 516.0, 22.7156
1.59100, 2.00, 413.0, 20.3224
1.59300, 2.00, 317.0, 17.8045
1.59500, 2.00, 226.0, 15.0333
1.59700, 2.00, 240.0, 15.4919
1.59900, 2.00, 322.0, 17.9444
1.60100, 2.00, 358.0, 18.9209
1.60300, 2.00, 396.0, 19.8997
1.60500, 2.00, 410.0, 20.2485
1.60700, 2.00, 335.0, 18.3030
1.60900, 2.00, 235.0, 15.3297
1.61100, 2.00, 202.0, 14.2127
1.61300, 2.00, 215.0, 14.6629
1.61500, 2.00, 302.0, 17.3781
1.61700, 2.00, 374.0, 19.3391
1.61900, 2.00, 386.0, 19.6469
1.62100, 2.00, 325.0, 18.0278
1.62300, 2.00, 269.0, 16.4012
1.62500, 2.00, 215.0, 14.6629
1.62700, 2.00, 187.0, 13.6748
1.62900, 2.00, 186.0, 13.6382
1.63100, 2.00, 227.0, 15.0665
1.63300, 2.00, 272.0, 16.4924
1.63500, 2.00, 302.0, 17.3781
1.63700, 2.00, 295.0, 17.1756
1.63900, 2.00, 219.0, 14.7986
1.64100, 2.00, 152.0, 12.3288
1.64300, 2.00, 161.0, 12.6886
1.64500, 2.00, 194.0, 13.9284
1.64700, 2.00, 213.0, 14.5945
1.64900, 2.00, 288.0, 16.9706
1.65100, 2.00, 281.0, 16.7631
1.65300, 2.00, 264.0, 16.2481
1.65500, 2.00, 215.0, 14.6629
1.65700, 2.00, 177.0, 13.3041
1.65900, 2.00, 136.0, 11.6619
1.66100, 2.00, 153.0, 12.3693
1.66300, 2.00, 227.0, 15.0665
1.66500, 2.00, 248.0, 15.7480
1.66700, 2.00, 286.0, 16.9115
1.66900, 2.00, 257.0, 16.0312
1.67100, 2.00, 158.0, 12.5698
1.67300, 2.00, 124.0, 11.1355
1.67500, 2.00, 116.0, 10.7703
1.67700, 2.00, 138.0, 11.7473
1.67900, 2.00, 178.0, 13.3417
1.68100, 2.00, 221.0, 14.8661
1.68300, 2.00, 233.0, 15.2643
1.68500, 2.00, 202.0, 14.2127
1.68700, 2.00, 153.0, 12.3693
1.68900, 2.00, 130.0, 11.4018
1.69100, 2.00, 110.0, 10.4881
1.69300, 2.00, 115.0, 10.7238
1.69500, 2.00, 143.0, 11.9583
1.69700, 2.00, 181.0, 13.4536
1.69900, 2.00, 188.0, 13.7113
1.70100, 2.00, 153.0, 12.3693
1.70300, 2.00, 136.0, 11.6619
1.70500, 2.00, 97.0, 9.8489
1.70700, 2.00, 118.0, 10.8628
1.70900, 2.00, 148.0, 12.1655
1.71100, 2.00, 151.0, 12.2882
1.71300, 2.00, 195.0, 13.9642
1.71500, 2.00, 185.0, 13.6015
1.71700, 2.00, 137.0, 11.7047
1.71900, 2.00, 118.0, 10.8628
1.72100, 2.00, 83.0, 9.1104
1.72300, 2.00, 99.0, 9.9499
1.72500, 2.00, 114.0, 10.6771
1.72700, 2.00, 168.0, 12.9615
1.72900, 2.00, 179.0, 13.3791
1.73100, 2.00, 173.0, 13.1529
1.73300, 2.00, 142.0, 11.9164
1.73500, 2.00, 134.0, 11.5758
1.73700, 2.00, 94.0, 9.6954
1.73900, 2.00, 96.0, 9.7980
1.74100, 2.00, 123.0, 11.0905
1.74300, 2.00, 171.0, 13.0767
1.74500, 2.00, 193.0, 13.8924
1.74700, 2.00, 163.0, 12.7671
1.74900, 2.00, 136.0, 11.6619
1.75100, 2.00, 120.0, 10.9545
1.75300, 2.00, 108.0, 10.3923
1.75500, 2.00, 84.0, 9.1652
1.75700, 2.00, 92.0, 9.5917
1.75900, 2.00, 114.0, 10.6771
1.76100, 2.00, 138.0, 11.7473
1.76300, 2.00, 145.0, 12.0416
1.76500, 2.00, 127.0, 11.2694
1.76700, 2.00, 121.0, 11.0000
1.76900, 2.00, 105.0, 10.2470
1.77100, 2.00, 98.0, 9.8995
1.77300, 2.00, 120.0, 10.9545
1.77500, 2.00, 157.0, 12.5300
1.77700, 2.00, 177.0, 13.3041
1.77900, 2.00, 160.0, 12.6491
1.78100, 2.00, 137.0, 11.7047
1.78300, 2.00, 123.0, 11.0905
1.78500, 2.00, 90.0, 9.4868
1.78700, 2.00, 74.0, 8.6023
1.78900, 2.00, 89.0, 9.4340
1.79100, 2.00, 114.0, 10.6771
1.79300, 2.00, 130.0, 11.4018
1.79500, 2.00, 141.0, 11.8743
1.79700, 2.00, 104.0, 10.1980
1.79900, 2.00, 98.0, 9.8995
1.80100, 2.00, 78.0, 8.8318
1.80300, 2.00, 75.0, 8.6603
1.80500, 2.00, 97.0, 9.8489
1.80700, 2.00, 109.0, 10.4403
1.80900, 2.00, 125.0, 11.1803
1.81100, 2.00, 120.0, 10.9545
1.81300, 2.00, 110.0, 10.4881
1.81500, 2.00, 83.0, 9.1104
1.81700, 2.00, 78.0, 8.8318
1.81900, 2.00, 78.0, 8.8318
1.82100, 2.00, 84.0, 9.1652
1.82300, 2.00, 136.0, 11.6619
1.82500, 2.00, 117.0, 10.8167
1.82700, 2.00, 139.0, 11.7898
1.82900, 2.00, 117.0, 10.8167
1.83100, 2.00, 103.0, 10.1489
1.83300, 2.00, 77.0, 8.7750
1.83500, 2.00, 78.0, 8.8318
1.83700, 2.00, 100.0, 10.0000
1.83900, 2.00, 112.0, 10.5830
1.84100, 2.00, 126.0, 11.2250
1.84300, 2.00, 124.0, 11.1355
1.84500, 2.00, 101.0, 10.0499
1.84700, 2.00, 70.0, 8.3666
1.84900, 2.00, 71.0, 8.4261
1.85100, 2.00, 83.0, 9.1104
1.85300, 2.00, 93.0, 9.6437
1.85500, 2.00, 96.0, 9.7980
1.85700, 2.00, 118.0, 10.8628
1.85900, 2.00, 115.0, 10.7238
1.86100, 2.00, 112.0, 10.5830
1.86300, 2.00, 87.0, 9.3274
1.86500, 2.00, 69.0, 8.3066
1.86700, 2.00, 74.0, 8.6023
1.86900, 2.00, 87.0, 9.3274
1.87100, 2.00, 91.0, 9.5394
1.87300, 2.00, 131.0, 11.4455
1.87500, 2.00, 119.0, 10.9087
1.87700, 2.00, 75.0, 8.6603
1.87900, 2.00, 73.0, 8.5440
1.88100, 2.00, 69.0, 8.3066
1.88300, 2.00, 86.0, 9.2736
1.88500, 2.00, 110.0, 10.4881
1.88700, 2.00, 130.0, 11.4018
1.88900, 2.00, 134.0, 11.5758
1.89100, 2.00, 124.0, 11.1355
1.89300, 2.00, 83.0, 9.1104
1.89500, 2.00, 85.0, 9.2195
1.89700, 2.00, 82.0, 9.0554
1.89900, 2.00, 74.0, 8.6023
1.90100, 2.00, 92.0, 9.5917
1.90300, 2.00, 120.0, 10.9545
1.90500, 2.00, 116.0, 10.7703
1.90700, 2.00, 95.0, 9.7468
1.90900, 2.00, 104.0, 10.1980
1.91100, 2.00, 57.0, 7.5498
1.91300, 2.00, 65.0, 8.0623
1.91500, 2.00, 64.0, 8.0000
1.91700, 2.00, 84.0, 9.1652
1.91900, 2.00, 96.0, 9.7980
1.92100, 2.00, 88.0, 9.3808
1.92300, 2.00, 104.0, 10.1980
1.92500, 2.00, 70.0, 8.3666
1.92700, 2.00, 59.0, 7.6811
1.92900, 2.00, 78.0, 8.8318
1.93100, 2.00, 79.0, 8.8882
1.93300, 2.00, 84.0, 9.1652
1.93500, 2.00, 114.0, 10.6771
1.93700, 2.00, 91.0, 9.5394
1.93900, 2.00, 98.0, 9.8995
1.94100, 2.00, 84.0, 9.1652
1.94300, 2.00, 70.0, 8.3666
1.94500, 2.00, 73.0, 8.5440
1.94700, 2.00, 78.0, 8.8318
1.94900, 2.00, 85.0, 9.2195
1.95100, 2.00, 100.0, 10.0000
1.95300, 2.00, 100.0, 10.0000
1.95500, 2.00, 98.0, 9.8995
1.95700, 2.00, 70.0, 8.3666
1.95900, 2.00, 65.0, 8.0623
1.96100, 2.00, 62.0, 7.8740
1.96300, 2.00, 92.0, 9.5917
1.96500, 2.00, 93.0, 9.6437
1.96700, 2.00, 96.0, 9.7980
1.96900, 2.00, 97.0, 9.8489
1.97100, 2.00, 79.0, 8.8882
1.97300, 2.00, 79.0, 8.8882
1.97500, 2.00, 54.0, 7.3485
1.97700, 2.00, 62.0, 7.8740
1.97900, 2.00, 69.0, 8.3066
1.98100, 2.00, 62.0, 7.8740
1.98300, 2.00, 76.0, 8.7178
1.98500, 2.00, 93.0, 9.6437
1.98700, 2.00, 87.0, 9.3274
1.98900, 2.00, 69.0, 8.3066
1.99100, 2.00, 67.0, 8.1854
1.99300, 2.00, 65.0, 8.0623
1.99500, 2.00, 70.0, 8.3666
1.99700, 2.00, 87.0, 9.3274
1.99900, 2.00, 100.0, 10.0000
2.00100, 2.00, 111.0, 10.5357
2.00300, 2.00, 99.0, 9.9499
2.00500, 2.00, 82.0, 9.0554
2.00700, 2.00, 78.0, 8.8318
2.00900, 2.00, 61.0, 7.8102
2.01100, 2.00, 60.0, 7.7460
2.01300, 2.00, 73.0, 8.5440
2.01500, 2.00, 114.0, 10.6771
2.01700, 2.00, 98.0, 9.8995
2.01900, 2.00, 95.0, 9.7468
2.02100, 2.00, 93.0, 9.6437
2.02300, 2.00, 84.0, 9.1652
2.02500, 2.00, 67.0, 8.1854
2.02700, 2.00, 59.0, 7.6811
2.02900, 2.00, 70.0, 8.3666
2.03100, 2.00, 70.0, 8.3666
2.03300, 2.00, 73.0, 8.5440
2.03500, 2.00, 57.0, 7.5498
2.03700, 2.00, 55.0, 7.4162
2.03900, 2.00, 60.0, 7.7460
2.04100, 2.00, 55.0, 7.4162
2.04300, 2.00, 74.0, 8.6023
2.04500, 2.00, 75.0, 8.6603
2.04700, 2.00, 90.0, 9.4868
2.04900, 2.00, 92.0, 9.5917
2.05100, 2.00, 89.0, 9.4340
2.05300, 2.00, 73.0, 8.5440
2.05500, 2.00, 63.0, 7.9373
2.05700, 2.00, 62.0, 7.8740
2.05900, 2.00, 66.0, 8.1240
2.06100, 2.00, 70.0, 8.3666
2.06300, 2.00, 85.0, 9.2195
2.06500, 2.00, 79.0, 8.8882
2.06700, 2.00, 85.0, 9.2195
2.06900, 2.00, 65.0, 8.0623
2.07100, 2.00, 66.0, 8.1240
2.07300, 2.00, 73.0, 8.5440
2.07500, 2.00, 86.0, 9.2736
2.07700, 2.00, 92.0, 9.5917
2.07900, 2.00, 110.0, 10.4881
2.08100, 2.00, 97.0, 9.8489
2.08300, 2.00, 77.0, 8.7750
2.08500, 2.00, 80.0, 8.9443
2.08700, 2.00, 78.0, 8.8318
2.08900, 2.00, 52.0, 7.2111
2.09100, 2.00, 73.0, 8.5440
2.09300, 2.00, 84.0, 9.1652
2.09500, 2.00, 83.0, 9.1104
2.09700, 2.00, 78.0, 8.8318
2.09900, 2.00, 81.0, 9.0000
2.10100, 2.00, 53.0, 7.2801
2.10300, 2.00, 51.0, 7.1414
2.10500, 2.00, 66.0, 8.1240
2.10700, 2.00, 81.0, 9.0000
2.10900, 2.00, 95.0, 9.7468
2.11100, 2.00, 106.0, 10.2956
2.11300, 2.00, 101.0, 10.0499
2.11500, 2.00, 74.0, 8.6023
2.11700, 2.00, 66.0, 8.1240
2.11900, 2.00, 60.0, 7.7460
2.12100, 2.00, 52.0, 7.2111
2.12300, 2.00, 75.0, 8.6603
2.12500, 2.00, 95.0, 9.7468
2.12700, 2.00, 91.0, 9.5394
2.12900, 2.00, 80.0, 8.9443
2.13100, 2.00, 116.0, 10.7703
2.13300, 2.00, 86.0, 9.2736
2.13500, 2.00, 62.0, 7.8740
2.13700, 2.00, 70.0, 8.3666
2.13900, 2.00, 71.0, 8.4261
2.14100, 2.00, 90.0, 9.4868
2.14300, 2.00, 87.0, 9.3274
2.14500, 2.00, 95.0, 9.7468
2.14700, 2.00, 89.0, 9.4340
2.14900, 2.00, 65.0, 8.0623
2.15100, 2.00, 80.0, 8.9443
2.15300, 2.00, 67.0, 8.1854
2.15500, 2.00, 73.0, 8.5440
2.15700, 2.00, 91.0, 9.5394
2.15900, 2.00, 104.0, 10.1980
2.16100, 2.00, 69.0, 8.3066
2.16300, 2.00, 74.0, 8.6023
2.16500, 2.00, 72.0, 8.4853
2.16700, 2.00, 61.0, 7.8102
2.16900, 2.00, 72.0, 8.4853
2.17100, 2.00, 67.0, 8.1854
2.17300, 2.00, 65.0, 8.0623
2.17500, 2.00, 77.0, 8.7750
2.17700, 2.00, 72.0, 8.4853
2.17900, 2.00, 74.0, 8.6023
2.18100, 2.00, 51.0, 7.1414
2.18300, 2.00, 66.0, 8.1240
2.18500, 2.00, 66.0, 8.1240
2.18700, 2.00, 83.0, 9.1104
2.18900, 2.00, 103.0, 10.1489
2.19100, 2.00, 111.0, 10.5357
2.19300, 2.00, 92.0, 9.5917
2.19500, 2.00, 87.0, 9.3274
2.19700, 2.00, 65.0, 8.0623
2.19900, 2.00, 71.0, 8.4261
2.20100, 2.00, 71.0, 8.4261
2.20300, 2.00, 80.0, 8.9443
2.20500, 2.00, 89.0, 9.4340
2.20700, 2.00, 94.0, 9.6954
2.20900, 2.00, 94.0, 9.6954
2.21100, 2.00, 59.0, 7.6811
2.21300, 2.00, 66.0, 8.1240
2.21500, 2.00, 57.0, 7.5498
2.21700, 2.00, 69.0, 8.3066
2.21900, 2.00, 86.0, 9.2736
2.22100, 2.00, 91.0, 9.5394
2.22300, 2.00, 110.0, 10.4881
2.22500, 2.00, 109.0, 10.4403
2.22700, 2.00, 91.0, 9.5394
2.22900, 2.00, 75.0, 8.6603
2.23100, 2.00, 74.0, 8.6023
2.23300, 2.00, 79.0, 8.8882
2.23500, 2.00, 76.0, 8.7178
2.23700, 2.00, 78.0, 8.8318
2.23900, 2.00, 77.0, 8.7750
2.24100, 2.00, 80.0, 8.9443
2.24300, 2.00, 81.0, 9.0000
2.24500, 2.00, 80.0, 8.9443
2.24700, 2.00, 53.0, 7.2801
2.24900, 2.00, 73.0, 8.5440
2.25100, 2.00, 101.0, 10.0499
2.25300, 2.00, 102.0, 10.0995
2.25500, 2.00, 101.0, 10.0499
2.25700, 2.00, 116.0, 10.7703
2.25900, 2.00, 96.0, 9.7980
2.26100, 2.00, 89.0, 9.4340
2.26300, 2.00, 83.0, 9.1104
2.26500, 2.00, 84.0, 9.1652
2.26700, 2.00, 111.0, 10.5357
2.26900, 2.00, 107.0, 10.3441
2.27100, 2.00, 122.0, 11.0454
2.27300, 2.00, 131.0, 11.4455
2.27500, 2.00, 115.0, 10.7238
2.27700, 2.00, 97.0, 9.8489
2.27900, 2.00, 83.0, 9.1104
2.28100, 2.00, 85.0, 9.2195
2.28300, 2.00, 115.0, 10.7238
2.28500, 2.00, 129.0, 11.3578
2.28700, 2.00, 150.0, 12.2474
2.28900, 2.00, 135.0, 11.6190
2.29100, 2.00, 125.0, 11.1803
2.29300, 2.00, 130.0, 11.4018
2.29500, 2.00, 115.0, 10.7238
2.29700, 2.00, 104.0, 10.1980
2.29900, 2.00, 87.0, 9.3274
2.30100, 2.00, 100.0, 10.0000
2.30300, 2.00, 100.0, 10.0000
2.30500, 2.00, 103.0, 10.1489
2.30700, 2.00, 106.0, 10.2956
2.30900, 2.00, 103.0, 10.1489
2.31100, 2.00, 85.0, 9.2195
2.31300, 2.00, 91.0, 9.5394
2.31500, 2.00, 100.0, 10.0000
2.31700, 2.00, 129.0, 11.3578
2.31900, 2.00, 150.0, 12.2474
2.32100, 2.00, 179.0, 13.3791
2.32300, 2.00, 134.0, 11.5758
2.32500, 2.00, 125.0, 11.1803
2.32700, 2.00, 132.0, 11.4891
2.32900, 2.00, 104.0, 10.1980
2.33100, 2.00, 144.0, 12.0000
2.33300, 2.00, 167.0, 12.9228
2.33500, 2.00, 144.0, 12.0000
2.33700, 2.00, 154.0, 12.4097
2.33900, 2.00, 114.0, 10.6771
2.34100, 2.00, 135.0, 11.6190
2.34300, 2.00, 112.0, 10.5830
2.34500, 2.00, 116.0, 10.7703
2.34700, 2.00, 145.0, 12.0416
2.34900, 2.00, 159.0, 12.6095
2.35100, 2.00, 203.0, 14.2478
2.35300, 2.00, 203.0, 14.2478
2.35500, 2.00, 185.0, 13.6015
2.35700, 2.00, 162.0, 12.7279
2.35900, 2.00, 145.0, 12.0416
2.36100, 2.00, 168.0, 12.9615
2.36300, 2.00, 182.0, 13.4907
2.36500, 2.00, 247.0, 15.7162
2.36700, 2.00, 224.0, 14.9666
2.36900, 2.00, 223.0, 14.9332
2.37100, 2.00, 189.0, 13.7477
2.37300, 2.00, 163.0, 12.7671
2.37500, 2.00, 162.0, 12.7279
2.37700, 2.00, 214.0, 14.6287
2.37900, 2.00, 265.0, 16.2788
2.38100, 2.00, 295.0, 17.1756
2.38300, 2.00, 329.0, 18.1384
2.38500, 2.00, 337.0, 18.3576
2.38700, 2.00, 246.0, 15.6844
2.38900, 2.00, 250.0, 15.8114
2.39100, 2.00, 239.0, 15.4596
2.39300, 2.00, 229.0, 15.1327
2.39500, 2.00, 282.0, 16.7929
2.39700, 2.00, 291.0, 17.0587
2.39900, 2.00, 348.0, 18.6548
2.40100, 2.00, 337.0, 18.3576
2.40300, 2.00, 318.0, 17.8326
2.40500, 2.00, 253.0, 15.9060
2.40700, 2.00, 306.0, 17.4929
2.40900, 2.00, 334.0, 18.2757
2.41100, 2.00, 414.0, 20.3470
2.41300, 2.00, 519.0, 22.7816
2.41500, 2.00, 518.0, 22.7596
2.41700, 2.00, 523.0, 22.8692
2.41900, 2.00, 445.0, 21.0950
2.42100, 2.00, 333.0, 18.2483
2.42300, 2.00, 307.0, 17.5214
2.42500, 2.00, 390.0, 19.7484
2.42700, 2.00, 415.0, 20.3715
2.42900, 2.00, 498.0, 22.3159
2.43100, 2.00, 483.0, 21.9773
2.43300, 2.00, 477.0, 21.8403
2.43500, 2.00, 434.0, 20.8327
2.43700, 2.00, 436.0, 20.8806
2.43900, 2.00, 404.0, 20.0998
2.44100, 2.00, 465.0, 21.5639
2.44300, 2.00, 562.0, 23.7065
2.44500, 2.00, 652.0, 25.5343
2.44700, 2.00, 776.0, 27.8568
2.44900, 2.00, 710.0, 26.6458
2.45100, 2.00, 672.0, 25.9230
2.45300, 2.00, 667.0, 25.8263
2.45500, 2.00, 646.0, 25.4165
2.45700, 2.00, 722.0, 26.8701
2.45900, 2.00, 869.0, 29.4788
2.46100, 2.00, 1095.0, 33.0908
2.46300, 2.00, 1169.0, 34.1906
2.46500, 2.00, 1138.0, 33.7343
2.46700, 2.00, 1050.0, 32.4037
2.46900, 2.00, 1046.0, 32.3419
2.47100, 2.00, 937.0, 30.6105
2.47300, 2.00, 1103.0, 33.2114
2.47500, 2.00, 1351.0, 36.7560
2.47700, 2.00, 1696.0, 41.1825
2.47900, 2.00, 1838.0, 42.8719
2.48100, 2.00, 1939.0, 44.0341
2.48300, 2.00, 1861.0, 43.1393
2.48500, 2.00, 1835.0, 42.8369
2.48700, 2.00, 2008.0, 44.8107
2.48900, 2.00, 2370.0, 48.6826
2.49100, 2.00, 2809.0, 53.0000
2.49300, 2.00, 3545.0, 59.5399
2.49500, 2.00, 3898.0, 62.4340
2.49700, 2.00, 3958.0, 62.9126
2.49900, 2.00, 3929.0, 62.6817
2.50100, 2.00, 3723.0, 61.0164
2.50300, 2.00, 3847.0, 62.0242
2.50500, 2.00, 4401.0, 66.3400
2.50700, 2.00, 5693.0, 75.4520
2.50900, 2.00, 7339.0, 85.6680
2.51100, 2.00, 9011.0, 94.9263
2.51300, 2.00, 9947.0, 99.7346
2.51500, 2.00, 10077.0, 100.3843
2.51700, 2.00, 9683.0, 98.4022
2.51900, 2.00, 9327.0, 96.5764
2.52100, 2.00, 9981.0, 99.9050
2.52300, 2.00, 11925.0, 109.2016
2.52500, 2.00, 15632.0, 125.0280
2.52700, 2.00, 20026.0, 141.5133
2.52900, 2.00, 24020.0, 154.9839
2.53100, 2.00, 26453.0, 162.6438
2.53300, 2.00, 26503.0, 162.7974
2.53500, 2.00, 24490.0, 156.4928
2.53700, 2.00, 22206.0, 149.0168
2.53900, 2.00, 23309.0, 152.6729
2.54100, 2.00, 31077.0, 176.2867
2.54300, 2.00, 46406.0, 215.4205
2.54500, 2.00, 71171.0, 266.7789
2.54700, 2.00, 102786.0, 320.6026
2.54900, 2.00, 136278.0, 369.1585
2.55100, 2.00, 168352.0, 410.3072
2.55300, 2.00, 191159.0, 437.2173
2.55500, 2.00, 202637.0, 450.1522
2.55700, 2.00, 201352.0, 448.7226
2.55900, 2.00, 189138.0, 434.9000
2.56100, 2.00, 167182.0, 408.8790
2.56300, 2.00, 139071.0, 372.9222
2.56500, 2.00, 109432.0, 330.8051
2.56700, 2.00, 82022.0, 286.3948
2.56900, 2.00, 57598.0, 239.9958
2.57100, 2.00, 39067.0, 197.6537
2.57300, 2.00, 25019.0, 158.1740
2.57500, 2.00, 15432.0, 124.2256
2.57700, 2.00, 8945.0, 94.5780
2.57900, 2.00, 5364.0, 73.2393
2.58100, 2.00, 3443.0, 58.6771
2.58300, 2.00, 2639.0, 51.3712
2.58500, 2.00, 2619.0, 51.1762
2.58700, 2.00, 2719.0, 52.1440
2.58900, 2.00, 2804.0, 52.9528
2.59100, 2.00, 2788.0, 52.8015
2.59300, 2.00, 2507.0, 50.0700
2.59500, 2.00, 2048.0, 45.2548
2.59700, 2.00, 1672.0, 40.8901
2.59900, 2.00, 1403.0, 37.4566
2.60100, 2.00, 1177.0, 34.3074
2.60300, 2.00, 1111.0, 33.3317
2.60500, 2.00, 1141.0, 33.7787
2.60700, 2.00, 1026.0, 32.0312
2.60900, 2.00, 1001.0, 31.6386
2.61100, 2.00, 875.0, 29.5804
2.61300, 2.00, 805.0, 28.3725
2.61500, 2.00, 762.0, 27.6043
2.61700, 2.00, 789.0, 28.0891
2.61900, 2.00, 915.0, 30.2490
2.62100, 2.00, 906.0, 30.0998
2.62300, 2.00, 910.0, 30.1662
2.62500, 2.00, 781.0, 27.9464
2.62700, 2.00, 734.0, 27.0924
2.62900, 2.00, 635.0, 25.1992
2.63100, 2.00, 554.0, 23.5372
2.63300, 2.00, 566.0, 23.7908
2.63500, 2.00, 555.0, 23.5584
2.63700, 2.00, 534.0, 23.1084
2.63900, 2.00, 524.0, 22.8910
2.64100, 2.00, 484.0, 22.0000
2.64300, 2.00, 371.0, 19.2614
2.64500, 2.00, 344.0, 18.5472
2.64700, 2.00, 307.0, 17.5214
2.64900, 2.00, 344.0, 18.5472
2.65100, 2.00, 356.0, 18.8680
2.65300, 2.00, 352.0, 18.7617
2.65500, 2.00, 343.0, 18.5203
2.65700, 2.00, 311.0, 17.6352
2.65900, 2.00, 286.0, 16.9115
2.66100, 2.00, 263.0, 16.2173
2.66300, 2.00, 256.0, 16.0000
2.66500, 2.00, 249.0, 15.7797
2.66700, 2.00, 239.0, 15.4596
2.66900, 2.00, 230.0, 15.1658
2.67100, 2.00, 219.0, 14.7986
2.67300, 2.00, 227.0, 15.0665
2.67500, 2.00, 163.0, 12.7671
2.67700, 2.00, 170.0, 13.0384
2.67900, 2.00, 172.0, 13.1149
2.68100, 2.00, 184.0, 13.5647
2.68300, 2.00, 199.0, 14.1067
2.68500, 2.00, 193.0, 13.8924
2.68700, 2.00, 191.0, 13.8203
2.68900, 2.00, 167.0, 12.9228
2.69100, 2.00, 147.0, 12.1244
2.69300, 2.00, 121.0, 11.0000
2.69500, 2.00, 146.0, 12.0830
2.69700, 2.00, 150.0, 12.2474
2.69900, 2.00, 156.0, 12.4900
2.70100, 2.00, 159.0, 12.6095
2.70300, 2.00, 168.0, 12.9615
2.70500, 2.00, 154.0, 12.4097
2.70700, 2.00, 138.0, 11.7473
2.70900, 2.00, 122.0, 11.0454
2.71100, 2.00, 136.0, 11.6619
2.71300, 2.00, 153.0, 12.3693
2.71500, 2.00, 142.0, 11.9164
2.71700, 2.00, 158.0, 12.5698
2.71900, 2.00, 139.0, 11.7898
2.72100, 2.00, 117.0, 10.8167
2.72300, 2.00, 100.0, 10.0000
2.72500, 2.00, 86.0, 9.2736
2.72700, 2.00, 87.0, 9.3274
2.72900, 2.00, 103.0, 10.1489
2.73100, 2.00, 102.0, 10.0995
2.73300, 2.00, 104.0, 10.1980
2.73500, 2.00, 116.0, 10.7703
2.73700, 2.00, 95.0, 9.7468
2.73900, 2.00, 78.0, 8.8318
2.74100, 2.00, 87.0, 9.3274
2.74300, 2.00, 85.0, 9.2195
2.74500, 2.00, 92.0, 9.5917
2.74700, 2.00, 99.0, 9.9499
2.74900, 2.00, 104.0, 10.1980
2.75100, 2.00, 91.0, 9.5394
2.75300, 2.00, 65.0, 8.0623
2.75500, 2.00, 83.0, 9.1104
2.75700, 2.00, 57.0, 7.5498
2.75900, 2.00, 81.0, 9.0000
2.76100, 2.00, 84.0, 9.1652
2.76300, 2.00, 69.0, 8.3066
2.76500, 2.00, 72.0, 8.4853
2.76700, 2.00, 71.0, 8.4261
2.76900, 2.00, 51.0, 7.1414
2.77100, 2.00, 67.0, 8.1854
2.77300, 2.00, 51.0, 7.1414
2.77500, 2.00, 64.0, 8.0000
2.77700, 2.00, 64.0, 8.0000
2.77900, 2.00, 70.0, 8.3666
2.78100, 2.00, 68.0, 8.2462
2.78300, 2.00, 54.0, 7.3485
2.78500, 2.00, 58.0, 7.6158
2.78700, 2.00, 49.0, 7.0000
2.78900, 2.00, 61.0, 7.8102
2.79100, 2.00, 47.0, 6.8557
2.79300, 2.00, 48.0, 6.9282
2.79500, 2.00, 66.0, 8.1240
2.79700, 2.00, 54.0, 7.3485
2.79900, 2.00, 46.0, 6.7823
2.80100, 2.00, 61.0, 7.8102
2.80300, 2.00, 42.0, 6.4807
2.80500, 2.00, 54.0, 7.3485
2.80700, 2.00, 56.0, 7.4833
2.80900, 2.00, 64.0, 8.0000
2.81100, 2.00, 67.0, 8.1854
2.81300, 2.00, 64.0, 8.0000
2.81500, 2.00, 55.0, 7.4162
2.81700, 2.00, 57.0, 7.5498
2.81900, 2.00, 45.0, 6.7082
2.82100, 2.00, 42.0, 6.4807
2.82300, 2.00, 43.0, 6.5574
2.82500, 2.00, 41.0, 6.4031
2.82700, 2.00, 43.0, 6.5574
2.82900, 2.00, 40.0, 6.3246
2.83100, 2.00, 39.0, 6.2450
2.83300, 2.00, 26.0, 5.0990
2.83500, 2.00, 38.0, 6.1644
2.83700, 2.00, 30.0, 5.4772
2.83900, 2.00, 36.0, 6.0000
2.84100, 2.00, 38.0, 6.1644
2.84300, 2.00, 39.0, 6.2450
2.84500, 2.00, 37.0, 6.0828
2.84700, 2.00, 32.0, 5.6569
2.84900, 2.00, 30.0, 5.4772
2.85100, 2.00, 34.0, 5.8310
2.85300, 2.00, 34.0, 5.8310
2.85500, 2.00, 40.0, 6.3246
2.85700, 2.00, 40.0, 6.3246
2.85900, 2.00, 39.0, 6.2450
2.86100, 2.00, 19.0, 4.3589
2.86300, 2.00, 25.0, 5.0000
2.86500, 2.00, 24.0, 4.8990
2.86700, 2.00, 33.0, 5.7446
2.86900, 2.00, 28.0, 5.2915
2.87100, 2.00, 29.0, 5.3852
2.87300, 2.00, 34.0, 5.8310
2.87500, 2.00, 35.0, 5.9161
2.87700, 2.00, 32.0, 5.6569
2.87900, 2.00, 12.0, 3.4641
2.88100, 2.00, 18.0, 4.2426
2.88300, 2.00, 23.0, 4.7958
2.88500, 2.00, 18.0, 4.2426
2.88700, 2.00, 18.0, 4.2426
2.88900, 2.00, 23.0, 4.7958
2.89100, 2.00, 42.0, 6.4807
2.89300, 2.00, 17.0, 4.1231
2.89500, 2.00, 25.0, 5.0000
2.89700, 2.00, 19.0, 4.3589
2.89900, 2.00, 24.0, 4.8990
2.90100, 2.00, 20.0, 4.4721
2.90300, 2.00, 24.0, 4.8990
2.90500, 2.00, 28.0, 5.2915
2.90700, 2.00, 29.0, 5.3852
2.90900, 2.00, 20.0, 4.4721
2.91100, 2.00, 20.0, 4.4721
2.91300, 2.00, 21.0, 4.5826
2.91500, 2.00, 11.0, 3.3166
2.91700, 2.00, 23.0, 4.7958
2.91900, 2.00, 13.0, 3.6056
2.92100, 2.00, 16.0, 4.0000
2.92300, 2.00, 24.0, 4.8990
2.92500, 2.00, 15.0, 3.8730
2.92700, 2.00, 17.0, 4.1231
2.92900, 2.00, 11.0, 3.3166
2.93100, 2.00, 12.0, 3.4641
2.93300, 2.00, 21.0, 4.5826
2.93500, 2.00, 21.0, 4.5826
2.93700, 2.00, 21.0, 4.5826
2.93900, 2.00, 15.0, 3.8730
2.94100, 2.00, 23.0, 4.7958
2.94300, 2.00, 8.0, 2.8284
2.94500, 2.00, 15.0, 3.8730
2.94700, 2.00, 12.0, 3.4641
2.94900, 2.00, 20.0, 4.4721
2.95100, 2.00, 18.0, 4.2426
2.95300, 2.00, 24.0, 4.8990
2.95500, 2.00, 16.0, 4.0000
2.95700, 2.00, 17.0, 4.1231
2.95900, 2.00, 9.0, 3.0000
2.96100, 2.00, 13.0, 3.6056
2.96300, 2.00, 10.0, 3.1623
2.96500, 2.00, 15.0, 3.8730
2.96700, 2.00, 17.0, 4.1231
2.96900, 2.00, 17.0, 4.1231
2.97100, 2.00, 23.0, 4.7958
2.97300, 2.00, 18.0, 4.2426
2.97500, 2.00, 11.0, 3.3166
2.97700, 2.00, 15.0, 3.8730
2.97900, 2.00, 11.0, 3.3166
2.98100, 2.00, 14.0, 3.7417
2.98300, 2.00, 18.0, 4.2426
2.98500, 2.00, 17.0, 4.1231
2.98700, 2.00, 11.0, 3.3166
2.98900, 2.00, 22.0, 4.6904
2.99100, 2.00, 12.0, 3.4641
2.99300, 2.00, 11.0, 3.3166
2.99500, 2.00, 7.0, 2.6458
2.99700, 2.00, 9.0, 3.0000
2.99900, 2.00, 17.0, 4.1231
3.00100, 2.00, 18.0, 4.2426
3.00300, 2.00, 16.0, 4.0000
3.00500, 2.00, 16.0, 4.0000
3.00700, 2.00, 16.0, 4.0000
3.00900, 2.00, 15.0, 3.8730
3.01100, 2.00, 7.0, 2.6458
3.01300, 2.00, 15.0, 3.8730
3.01500, 2.00, 9.0, 3.0000
3.01700, 2.00, 10.0, 3.1623
3.01900, 2.00, 12.0, 3.4641
3.02100, 2.00, 10.0, 3.1623
3.02300, 2.00, 5.0, 2.2361
3.02500, 2.00, 12.0, 3.4641
3.02700, 2.00, 8.0, 2.8284
3.02900, 2.00, 9.0, 3.0000
3.03100, 2.00, 13.0, 3.6056
3.03300, 2.00, 14.0, 3.7417
3.03500, 2.00, 9.0, 3.0000
3.03700, 2.00, 10.0, 3.1623
3.03900, 2.00, 7.0, 2.6458
3.04100, 2.00, 11.0, 3.3166
3.04300, 2.00, 2.0, 1.4142
3.04500, 2.00, 6.0, 2.4495
3.04700, 2.00, 9.0, 3.0000
3.04900, 2.00, 9.0, 3.0000
3.05100, 2.00, 11.0, 3.3166
3.05300, 2.00, 10.0, 3.1623
3.05500, 2.00, 5.0, 2.2361
3.05700, 2.00, 4.0, 2.0000
3.05900, 2.00, 8.0, 2.8284
3.06100, 2.00, 6.0, 2.4495
3.06300, 2.00, 11.0, 3.3166
3.06500, 2.00, 11.0, 3.3166
3.06700, 2.00, 11.0, 3.3166
3.06900, 2.00, 4.0, 2.0000
3.07100, 2.00, 12.0, 3.4641
3.07300, 2.00, 6.0, 2.4495
3.07500, 2.00, 9.0, 3.0000
3.07700, 2.00, 11.0, 3.3166
3.07900, 2.00, 9.0, 3.0000
3.08100, 2.00, 7.0, 2.6458
3.08300, 2.00, 4.0, 2.0000
3.08500, 2.00, 5.0, 2.2361
3.08700, 2.00, 7.0, 2.6458
3.08900, 2.00, 6.0, 2.4495
3.09100, 2.00, 6.0, 2.4495
3.09300, 2.00, 1.0, 1.0000
3.09500, 2.00, 11.0, 3.3166
3.09700, 2.00, 9.0, 3.0000
3.09900, 2.00, 5.0, 2.2361
3.10100, 2.00, 1.0, 1.0000
3.10300, 2.00, 7.0, 2.6458
3.10500, 2.00, 2.0, 1.4142
3.10700, 2.00, 3.0, 1.7321
3.10900, 2.00, 7.0, 2.6458
3.11100, 2.00, 5.0, 2.2361
3.11300, 2.00, 8.0, 2.8284
3.11500, 2.00, 7.0, 2.6458
3.11700, 2.00, 4.0, 2.0000
3.11900, 2.00, 1.0, 1.0000
3.12100, 2.00, 5.0, 2.2361
3.12300, 2.00, 4.0, 2.0000
3.12500, 2.00, 6.0, 2.4495
3.12700, 2.00, 5.0, 2.2361
3.12900, 2.00, 12.0, 3.4641
3.13100, 2.00, 6.0, 2.4495
3.13300, 2.00, 1.0, 1.0000
3.13500, 2.00, 5.0, 2.2361
3.13700, 2.00, 3.0, 1.7321
3.13900, 2.00, 4.0, 2.0000
3.14100, 2.00, 2.0, 1.4142
3.14300, 2.00, 6.0, 2.4495
3.14500, 2.00, 3.0, 1.7321
3.14700, 2.00, 1.0, 1.0000
3.14900, 2.00, 2.0, 1.4142
3.15100, 2.00, 3.0, 1.7321
3.15300, 2.00, 5.0, 2.2361
3.15500, 2.00, 4.0, 2.0000
3.15700, 2.00, 5.0, 2.2361
3.15900, 2.00, 6.0, 2.4495
3.16100, 2.00, 7.0, 2.6458
3.16300, 2.00, 5.0, 2.2361
3.16500, 2.00, 0.0, 0.0000
3.16700, 2.00, 4.0, 2.0000
3.16900, 2.00, 6.0, 2.4495
3.17100, 2.00, 2.0, 1.4142
3.17300, 2.00, 0.0, 0.0000
3.17500, 2.00, 4.0, 2.0000
3.17700, 2.00, 6.0, 2.4495
3.17900, 2.00, 5.0, 2.2361
3.18100, 2.00, 1.0, 1.0000
3.18300, 2.00, 3.0, 1.7321
3.18500, 2.00, 3.0, 1.7321
3.18700, 2.00, 6.0, 2.4495
3.18900, 2.00, 5.0, 2.2361
3.19100, 2.00, 7.0, 2.6458
3.19300, 2.00, 4.0, 2.0000
3.19500, 2.00, 5.0, 2.2361
3.19700, 2.00, 1.0, 1.0000
3.19900, 2.00, 5.0, 2.2361
3.20100, 2.00, 4.0, 2.0000
3.20300, 2.00, 4.0, 2.0000
3.20500, 2.00, 2.0, 1.4142
3.20700, 2.00, 1.0, 1.0000
3.20900, 2.00, 4.0, 2.0000
3.21100, 2.00, 1.0, 1.0000
3.21300, 2.00, 2.0, 1.4142
3.21500, 2.00, 2.0, 1.4142
3.21700, 2.00, 2.0, 1.4142
3.21900, 2.00, 2.0, 1.4142
3.22100, 2.00, 3.0, 1.7321
3.22300, 2.00, 5.0, 2.2361
3.22500, 2.00, 2.0, 1.4142
3.22700, 2.00, 3.0, 1.7321
3.22900, 2.00, 2.0, 1.4142
3.23100, 2.00, 4.0, 2.0000
3.23300, 2.00, 4.0, 2.0000
3.23500, 2.00, 4.0, 2.0000
3.23700, 2.00, 3.0, 1.7321
3.23900, 2.00, 2.0, 1.4142
3.24100, 2.00, 2.0, 1.4142
3.24300, 2.00, 3.0, 1.7321
3.24500, 2.00, 3.0, 1.7321
3.24700, 2.00, 3.0, 1.7321
3.24900, 2.00, 3.0, 1.7321
3.25100, 2.00, 2.0, 1.4142
3.25300, 2.00, 1.0, 1.0000
3.25500, 2.00, 2.0, 1.4142
3.25700, 2.00, 2.0, 1.4142
3.25900, 2.00, 3.0, 1.7321
3.26100, 2.00, 2.0, 1.4142
3.26300, 2.00, 2.0, 1.4142
3.26500, 2.00, 2.0, 1.4142
3.26700, 2.00, 0.0, 0.0000
3.26900, 2.00, 2.0, 1.4142
3.27100, 2.00, 4.0, 2.0000
3.27300, 2.00, 3.0, 1.7321
3.27500, 2.00, 1.0, 1.0000
3.27700, 2.00, 1.0, 1.0000
3.27900, 2.00, 0.0, 0.0000
3.28100, 2.00, 2.0, 1.4142
3.28300, 2.00, 4.0, 2.0000
3.28500, 2.00, 0.0, 0.0000
3.28700, 2.00, 2.0, 1.4142
3.28900, 2.00, 3.0, 1.7321
3.29100, 2.00, 3.0, 1.7321
3.29300, 2.00, 5.0, 2.2361
3.29500, 2.00, 2.0, 1.4142
3.29700, 2.00, 2.0, 1.4142
3.29900, 2.00, 3.0, 1.7321
3.30100, 2.00, 1.0, 1.0000
3.30300, 2.00, 0.0, 0.0000
3.30500, 2.00, 1.0, 1.0000
3.30700, 2.00, 1.0, 1.0000
3.30900, 2.00, 0.0, 0.0000
3.31100, 2.00, 6.0, 2.4495
3.31300, 2.00, 2.0, 1.4142
3.31500, 2.00, 0.0, 0.0000
3.31700, 2.00, 1.0, 1.0000
3.31900, 2.00, 1.0, 1.0000
3.32100, 2.00, 8.0, 2.8284
3.32300, 2.00, 2.0, 1.4142
3.32500, 2.00, 2.0, 1.4142
3.32700, 2.00, 3.0, 1.7321
3.32900, 2.00, 3.0, 1.7321
3.33100, 2.00, 1.0, 1.0000
3.33300, 2.00, 3.0, 1.7321
3.33500, 2.00, 1.0, 1.0000
3.33700, 2.00, 4.0, 2.0000
3.33900, 2.00, 1.0, 1.0000
3.34100, 2.00, 2.0, 1.4142
3.34300, 2.00, 2.0, 1.4142
3.34500, 2.00, 4.0, 2.0000
3.34700, 2.00, 3.0, 1.7321
3.34900, 2.00, 3.0, 1.7321
3.35100, 2.00, 1.0, 1.0000
3.35300, 2.00, 1.0, 1.0000
3.35500, 2.00, 1.0, 1.0000
3.35700, 2.00, 1.0, 1.0000
3.35900, 2.00, 2.0, 1.4142
3.36100, 2.00, 2.0, 1.4142
3.36300, 2.00, 2.0, 1.4142
3.36500, 2.00, 4.0, 2.0000
3.36700, 2.00, 2.0, 1.4142
3.36900, 2.00, 2.0, 1.4142
3.37100, 2.00, 2.0, 1.4142
3.37300, 2.00, 0.0, 0.0000
3.37500, 2.00, 0.0, 0.0000
3.37700, 2.00, 2.0, 1.4142
3.37900, 2.00, 1.0, 1.0000
3.38100, 2.00, 0.0, 0.0000
3.38300, 2.00, 1.0, 1.0000
3.38500, 2.00, 2.0, 1.4142
3.38700, 2.00, 3.0, 1.7321
3.38900, 2.00, 1.0, 1.0000
3.39100, 2.00, 2.0, 1.4142
3.39300, 2.00, 2.0, 1.4142
3.39500, 2.00, 2.0, 1.4142
3.39700, 2.00, 2.0, 1.4142
3.39900, 2.00, 1.0, 1.0000
3.40100, 2.00, 0.0, 0.0000
3.40300, 2.00, 3.0, 1.7321
3.40500, 2.00, 2.0, 1.4142
3.40700, 2.00, 2.0, 1.4142
3.40900, 2.00, 0.0, 0.0000
3.41100, 2.00, 1.0, 1.0000
3.41300, 2.00, 3.0, 1.7321
3.41500, 2.00, 2.0, 1.4142
3.41700, 2.00, 1.0, 1.0000
3.41900, 2.00, 2.0, 1.4142
3.42100, 2.00, 1.0, 1.0000
3.42300, 2.00, 4.0, 2.0000
3.42500, 2.00, 4.0, 2.0000
3.42700, 2.00, 2.0, 1.4142
3.42900, 2.00, 1.0, 1.0000
3.43100, 2.00, 1.0, 1.0000
3.43300, 2.00, 5.0, 2.2361
3.43500, 2.00, 1.0, 1.0000
3.43700, 2.00, 4.0, 2.0000
3.43900, 2.00, 5.0, 2.2361
3.44100, 2.00, 0.0, 0.0000
3.44300, 2.00, 4.0, 2.0000
3.44500, 2.00, 1.0, 1.0000
3.44700, 2.00, 1.0, 1.0000
3.44900, 2.00, 4.0, 2.0000
3.45100, 2.00, 3.0, 1.7321
3.45300, 2.00, 2.0, 1.4142
3.45500, 2.00, 4.0, 2.0000
3.45700, 2.00, 2.0, 1.4142
3.45900, 2.00, 1.0, 1.0000
3.46100, 2.00, 1.0, 1.0000
3.46300, 2.00, 2.0, 1.4142
3.46500, 2.00, 2.0, 1.4142
3.46700, 2.00, 1.0, 1.0000
3.46900, 2.00, 1.0, 1.0000
3.47100, 2.00, 0.0, 0.0000
3.47300, 2.00, 4.0, 2.0000
3.47500, 2.00, 1.0, 1.0000
3.47700, 2.00, 4.0, 2.0000
3.47900, 2.00, 2.0, 1.4142
3.48100, 2.00, 3.0, 1.7321
3.48300, 2.00, 6.0, 2.4495
3.48500, 2.00, 0.0, 0.0000
3.48700, 2.00, 3.0, 1.7321
3.48900, 2.00, 0.0, 0.0000
3.49100, 2.00, 3.0, 1.7321
3.49300, 2.00, 4.0, 2.0000
3.49500, 2.00, 2.0, 1.4142
3.49700, 2.00, 1.0, 1.0000
3.49900, 2.00, 1.0, 1.0000
3.50100, 2.00, 2.0, 1.4142
3.50300, 2.00, 3.0, 1.7321
3.50500, 2.00, 4.0, 2.0000
3.50700, 2.00, 3.0, 1.7321
3.50900, 2.00, 2.0, 1.4142
3.51100, 2.00, 3.0, 1.7321
3.51300, 2.00, 0.0, 0.0000
3.51500, 2.00, 1.0, 1.0000
3.51700, 2.00, 4.0, 2.0000
3.51900, 2.00, 4.0, 2.0000
3.52100, 2.00, 1.0, 1.0000
3.52300, 2.00, 1.0, 1.0000
3.52500, 2.00, 5.0, 2.2361
3.52700, 2.00, 4.0, 2.0000
3.52900, 2.00, 2.0, 1.4142
3.53100, 2.00, 2.0, 1.4142
3.53300, 2.00, 3.0, 1.7321
3.53500, 2.00, 1.0, 1.0000
3.53700, 2.00, 2.0, 1.4142
3.53900, 2.00, 4.0, 2.0000
3.54100, 2.00, 4.0, 2.0000
3.54300, 2.00, 2.0, 1.4142
3.54500, 2.00, 4.0, 2.0000
3.54700, 2.00, 2.0, 1.4142
3.54900, 2.00, 2.0, 1.4142
3.55100, 2.00, 4.0, 2.0000
3.55300, 2.00, 3.0, 1.7321
3.55500, 2.00, 5.0, 2.2361
3.55700, 2.00, 1.0, 1.0000
3.55900, 2.00, 4.0, 2.0000
3.56100, 2.00, 2.0, 1.4142
3.56300, 2.00, 2.0, 1.4142
3.56500, 2.00, 2.0, 1.4142
3.56700, 2.00, 3.0, 1.7321
3.56900, 2.00, 1.0, 1.0000
3.57100, 2.00, 3.0, 1.7321
3.57300, 2.00, 2.0, 1.4142
3.57500, 2.00, 1.0, 1.0000
3.57700, 2.00, 2.0, 1.4142
3.57900, 2.00, 2.0, 1.4142
3.58100, 2.00, 4.0, 2.0000
3.58300, 2.00, 6.0, 2.4495
3.58500, 2.00, 1.0, 1.0000
3.58700, 2.00, 1.0, 1.0000
3.58900, 2.00, 4.0, 2.0000
3.59100, 2.00, 1.0, 1.0000
3.59300, 2.00, 6.0, 2.4495
3.59500, 2.00, 3.0, 1.7321
3.59700, 2.00, 6.0, 2.4495
3.59900, 2.00, 4.0, 2.0000
3.60100, 2.00, 4.0, 2.0000
3.60300, 2.00, 2.0, 1.4142
3.60500, 2.00, 4.0, 2.0000
3.60700, 2.00, 3.0, 1.7321
3.60900, 2.00, 9.0, 3.0000
3.61100, 2.00, 6.0, 2.4495
3.61300, 2.00, 3.0, 1.7321
3.61500, 2.00, 4.0, 2.0000
3.61700, 2.00, 4.0, 2.0000
3.61900, 2.00, 5.0, 2.2361
3.62100, 2.00, 3.0, 1.7321
3.62300, 2.00, 4.0, 2.0000
3.62500, 2.00, 3.0, 1.7321
3.62700, 2.00, 2.0, 1.4142
3.62900, 2.00, 6.0, 2.4495
3.63100, 2.00, 4.0, 2.0000
3.63300, 2.00, 7.0, 2.6458
3.63500, 2.00, 10.0, 3.1623
3.63700, 2.00, 4.0, 2.0000
3.63900, 2.00, 1.0, 1.0000
3.64100, 2.00, 3.0, 1.7321
3.64300, 2.00, 9.0, 3.0000
3.64500, 2.00, 12.0, 3.4641
3.64700, 2.00, 11.0, 3.3166
3.64900, 2.00, 4.0, 2.0000
3.65100, 2.00, 8.0, 2.8284
3.65300, 2.00, 11.0, 3.3166
3.65500, 2.00, 6.0, 2.4495
3.65700, 2.00, 7.0, 2.6458
3.65900, 2.00, 12.0, 3.4641
3.66100, 2.00, 13.0, 3.6056
3.66300, 2.00, 9.0, 3.0000
3.66500, 2.00, 9.0, 3.0000
3.66700, 2.00, 11.0, 3.3166
3.66900, 2.00, 6.0, 2.4495
3.67100, 2.00, 9.0, 3.0000
3.67300, 2.00, 9.0, 3.0000
3.67500, 2.00, 20.0, 4.4721
3.67700, 2.00, 17.0, 4.1231
3.67900, 2.00, 8.0, 2.8284
3.68100, 2.00, 14.0, 3.7417
3.68300, 2.00, 9.0, 3.0000
3.68500, 2.00, 16.0, 4.0000
3.68700, 2.00, 19.0, 4.3589
3.68900, 2.00, 17.0, 4.1231
3.69100, 2.00, 16.0, 4.0000
3.69300, 2.00, 22.0, 4.6904
3.69500, 2.00, 15.0, 3.8730
3.69700, 2.00, 15.0, 3.8730
3.69900, 2.00, 25.0, 5.0000
3.70100, 2.00, 20.0, 4.4721
3.70300, 2.00, 22.0, 4.6904
3.70500, 2.00, 34.0, 5.8310
3.70700, 2.00, 43.0, 6.5574
3.70900, 2.00, 42.0, 6.4807
3.71100, 2.00, 32.0, 5.6569
3.71300, 2.00, 46.0, 6.7823
3.71500, 2.00, 34.0, 5.8310
3.71700, 2.00, 38.0, 6.1644
3.71900, 2.00, 46.0, 6.7823
3.72100, 2.00, 57.0, 7.5498
3.72300, 2.00, 46.0, 6.7823
3.72500, 2.00, 50.0, 7.0711
3.72700, 2.00, 49.0, 7.0000
3.72900, 2.00, 71.0, 8.4261
3.73100, 2.00, 61.0, 7.8102
3.73300, 2.00, 61.0, 7.8102
3.73500, 2.00, 72.0, 8.4853
3.73700, 2.00, 60.0, 7.7460
3.73900, 2.00, 76.0, 8.7178
3.74100, 2.00, 82.0, 9.0554
3.74300, 2.00, 90.0, 9.4868
3.74500, 2.00, 87.0, 9.3274
3.74700, 2.00, 84.0, 9.1652
3.74900, 2.00, 110.0, 10.4881
3.75100, 2.00, 113.0, 10.6301
3.75300, 2.00, 117.0, 10.8167
3.75500, 2.00, 129.0, 11.3578
3.75700, 2.00, 139.0, 11.7898
3.75900, 2.00, 159.0, 12.6095
3.76100, 2.00, 172.0, 13.1149
3.76300, 2.00, 182.0, 13.4907
3.76500, 2.00, 185.0, 13.6015
3.76700, 2.00, 187.0, 13.6748
3.76900, 2.00, 221.0, 14.8661
3.77100, 2.00, 251.0, 15.8430
3.77300, 2.00, 266.0, 16.3095
3.77500, 2.00, 298.0, 17.2627
3.77700, 2.00, 329.0, 18.1384
3.77900, 2.00, 336.0, 18.3303
3.78100, 2.00, 350.0, 18.7083
3.78300, 2.00, 309.0, 17.5784
3.78500, 2.00, 322.0, 17.9444
3.78700, 2.00, 389.0, 19.7231
3.78900, 2.00, 414.0, 20.3470
3.79100, 2.00, 498.0, 22.3159
3.79300, 2.00, 525.0, 22.9129
3.79500, 2.00, 566.0, 23.7908
3.79700, 2.00, 541.0, 23.2594
3.79900, 2.00, 552.0, 23.4947
3.80100, 2.00, 470.0, 21.6795
3.80300, 2.00, 490.0, 22.1359
3.80500, 2.00, 471.0, 21.7025
3.80700, 2.00, 650.0, 25.4951
3.80900, 2.00, 877.0, 29.6142
3.81100, 2.00, 1173.0, 34.2491
3.81300, 2.00, 1436.0, 37.8946
3.81500, 2.00, 1763.0, 41.9881
3.81700, 2.00, 2085.0, 45.6618
3.81900, 2.00, 2329.0, 48.2597
3.82100, 2.00, 2358.0, 48.5592
3.82300, 2.00, 2308.0, 48.0416
3.82500, 2.00, 2266.0, 47.6025
3.82700, 2.00, 1935.0, 43.9886
3.82900, 2.00, 1589.0, 39.8623
3.83100, 2.00, 1383.0, 37.1887
3.83300, 2.00, 1111.0, 33.3317
3.83500, 2.00, 847.0, 29.1033
3.83700, 2.00, 639.0, 25.2784
3.83900, 2.00, 400.0, 20.0000
3.84100, 2.00, 274.0, 16.5529
3.84300, 2.00, 180.0, 13.4164
3.84500, 2.00, 126.0, 11.2250
3.84700, 2.00, 80.0, 8.9443
3.84900, 2.00, 70.0, 8.3666
3.85100, 2.00, 49.0, 7.0000
3.85300, 2.00, 32.0, 5.6569
3.85500, 2.00, 28.0, 5.2915
3.85700, 2.00, 28.0, 5.2915
3.85900, 2.00, 29.0, 5.3852
3.86100, 2.00, 9.0, 3.0000
3.86300, 2.00, 14.0, 3.7417
3.86500, 2.00, 16.0, 4.0000
3.86700, 2.00, 19.0, 4.3589
3.86900, 2.00, 12.0, 3.4641
3.87100, 2.00, 11.0, 3.3166
3.87300, 2.00, 9.0, 3.0000
3.87500, 2.00, 8.0, 2.8284
3.87700, 2.00, 12.0, 3.4641
3.87900, 2.00, 9.0, 3.0000
3.88100, 2.00, 14.0, 3.7417
3.88300, 2.00, 10.0, 3.1623
3.88500, 2.00, 13.0, 3.6056
3.88700, 2.00, 7.0, 2.6458
3.88900, 2.00, 6.0, 2.4495
3.89100, 2.00, 8.0, 2.8284
3.89300, 2.00, 12.0, 3.4641
3.89500, 2.00, 6.0, 2.4495
3.89700, 2.00, 2.0, 1.4142
3.89900, 2.00, 9.0, 3.0000
3.90100, 2.00, 9.0, 3.0000
3.90300, 2.00, 7.0, 2.6458
3.90500, 2.00, 6.0, 2.4495
3.90700, 2.00, 3.0, 1.7321
3.90900, 2.00, 2.0, 1.4142
3.91100, 2.00, 3.0, 1.7321
3.91300, 2.00, 6.0, 2.4495
3.91500, 2.00, 7.0, 2.6458
3.91700, 2.00, 6.0, 2.4495
3.91900, 2.00, 3.0, 1.7321
3.92100, 2.00, 4.0, 2.0000
3.92300, 2.00, 6.0, 2.4495
3.92500, 2.00, 1.0, 1.0000
3.92700, 2.00, 1.0, 1.0000
3.92900, 2.00, 3.0, 1.7321
3.93100, 2.00, 4.0, 2.0000
3.93300, 2.00, 7.0, 2.6458
3.93500, 2.00, 3.0, 1.7321
3.93700, 2.00, 0.0, 0.0000
3.93900, 2.00, 2.0, 1.4142
3.94100, 2.00, 5.0, 2.2361
3.94300, 2.00, 7.0, 2.6458
3.94500, 2.00, 2.0, 1.4142
3.94700, 2.00, 3.0, 1.7321
3.94900, 2.00, 3.0, 1.7321
3.95100, 2.00, 3.0, 1.7321
3.95300, 2.00, 3.0, 1.7321
3.95500, 2.00, 3.0, 1.7321
3.95700, 2.00, 5.0, 2.2361
3.95900, 2.00, 3.0, 1.7321
3.96100, 2.00, 0.0, 0.0000
3.96300, 2.00, 1.0, 1.0000
3.96500, 2.00, 1.0, 1.0000
3.96700, 2.00, 1.0, 1.0000
3.96900, 2.00, 2.0, 1.4142
3.97100, 2.00, 2.0, 1.4142
3.97300, 2.00, 2.0, 1.4142
3.97500, 2.00, 1.0, 1.0000
3.97700, 2.00, 2.0, 1.4142
3.97900, 2.00, 2.0, 1.4142
3.98100, 2.00, 1.0, 1.0000
3.98300, 2.00, 1.0, 1.0000
3.98500, 2.00, 1.0, 1.0000
3.98700, 2.00, 3.0, 1.7321
3.98900, 2.00, 0.0, 0.0000
3.99100, 2.00, 5.0, 2.2361
3.99300, 2.00, 2.0, 1.4142
3.99500, 2.00, 2.0, 1.4142
3.99700, 2.00, 2.0, 1.4142
3.99900, 2.00, 1.0, 1.0000
4.00100, 2.00, 3.0, 1.7321
4.00300, 2.00, 1.0, 1.0000
4.00500, 2.00, 4.0, 2.0000
4.00700, 2.00, 2.0, 1.4142
4.00900, 2.00, 1.0, 1.0000
4.01100, 2.00, 1.0, 1.0000
4.01300, 2.00, 1.0, 1.0000
4.01500, 2.00, 0.0, 0.0000
4.01700, 2.00, 0.0, 0.0000
4.01900, 2.00, 1.0, 1.0000
4.02100, 2.00, 0.0, 0.0000
4.02300, 2.00, 1.0, 1.0000
4.02500, 2.00, 0.0, 0.0000
4.02700, 2.00, 1.0, 1.0000
4.02900, 2.00, 3.0, 1.7321
4.03100, 2.00, 1.0, 1.0000
4.03300, 2.00, 2.0, 1.4142
4.03500, 2.00, 1.0, 1.0000
4.03700, 2.00, 1.0, 1.0000
4.03900, 2.00, 0.0, 0.0000
4.04100, 2.00, 1.0, 1.0000
4.04300, 2.00, 1.0, 1.0000
4.04500, 2.00, 0.0, 0.0000
4.04700, 2.00, 0.0, 0.0000
4.04900, 2.00, 3.0, 1.7321
4.05100, 2.00, 1.0, 1.0000
4.05300, 2.00, 0.0, 0.0000
4.05500, 2.00, 0.0, 0.0000
4.05700, 2.00, 1.0, 1.0000
4.05900, 2.00, 0.0, 0.0000
4.06100, 2.00, 0.0, 0.0000
4.06300, 2.00, 3.0, 1.7321
4.06500, 2.00, 1.0, 1.0000
4.06700, 2.00, 3.0, 1.7321
4.06900, 2.00, 1.0, 1.0000
4.07100, 2.00, 0.0, 0.0000
4.07300, 2.00, 2.0, 1.4142
4.07500, 2.00, 2.0, 1.4142
4.07700, 2.00, 0.0, 0.0000
4.07900, 2.00, 1.0, 1.0000
4.08100, 2.00, 1.0, 1.0000
4.08300, 2.00, 1.0, 1.0000
4.08500, 2.00, 2.0, 1.4142
4.08700, 2.00, 1.0, 1.0000
4.08900, 2.00, 1.0, 1.0000
4.09100, 2.00, 4.0, 2.0000
4.09300, 2.00, 0.0, 0.0000
4.09500, 2.00, 2.0, 1.4142
4.09700, 2.00, 2.0, 1.4142
4.09900, 2.00, 0.0, 0.0000
4.10100, 2.00, 2.0, 1.4142
4.10300, 2.00, 4.0, 2.0000
4.10500, 2.00, 0.0, 0.0000
4.10700, 2.00, 1.0, 1.0000
4.10900, 2.00, 1.0, 1.0000
4.11100, 2.00, 0.0, 0.0000
4.11300, 2.00, 1.0, 1.0000
4.11500, 2.00, 1.0, 1.0000
4.11700, 2.00, 1.0, 1.0000
4.11900, 2.00, 2.0, 1.4142
4.12100, 2.00, 2.0, 1.4142
4.12300, 2.00, 2.0, 1.4142
4.12500, 2.00, 1.0, 1.0000
4.12700, 2.00, 0.0, 0.0000
4.12900, 2.00, 3.0, 1.7321
4.13100, 2.00, 0.0, 0.0000
4.13300, 2.00, 0.0, 0.0000
4.13500, 2.00, 2.0, 1.4142
4.13700, 2.00, 1.0, 1.0000
4.13900, 2.00, 0.0, 0.0000
4.14100, 2.00, 1.0, 1.0000
4.14300, 2.00, 0.0, 0.0000
4.14500, 2.00, 1.0, 1.0000
4.14700, 2.00, 1.0, 1.0000
4.14900, 2.00, 2.0, 1.4142
4.15100, 2.00, 0.0, 0.0000
4.15300, 2.00, 2.0, 1.4142
4.15500, 2.00, 1.0, 1.0000
4.15700, 2.00, 0.0, 0.0000
4.15900, 2.00, 0.0, 0.0000
4.16100, 2.00, 0.0, 0.0000
4.16300, 2.00, 2.0, 1.4142
4.16500, 2.00, 1.0, 1.0000
4.16700, 2.00, 0.0, 0.0000
4.16900, 2.00, 3.0, 1.7321
4.17100, 2.00, 0.0, 0.0000
4.17300, 2.00, 0.0, 0.0000
4.17500, 2.00, 2.0, 1.4142
4.17700, 2.00, 2.0, 1.4142
4.17900, 2.00, 1.0, 1.0000
4.18100, 2.00, 0.0, 0.0000
4.18300, 2.00, 0.0, 0.0000
4.18500, 2.00, 1.0, 1.0000
4.18700, 2.00, 0.0, 0.0000
4.18900, 2.00, 0.0, 0.0000
4.19100, 2.00, 2.0, 1.4142
4.19300, 2.00, 0.0, 0.0000
4.19500, 2.00, 0.0, 0.0000
4.19700, 2.00, 2.0, 1.4142
4.19900, 2.00, 1.0, 1.0000
4.20100, 2.00, 0.0, 0.0000
4.20300, 2.00, 1.0, 1.0000
4.20500, 2.00, 0.0, 0.0000
4.20700, 2.00, 2.0, 1.4142
4.20900, 2.00, 2.0, 1.4142
4.21100, 2.00, 2.0, 1.4142
4.21300, 2.00, 0.0, 0.0000
4.21500, 2.00, 0.0, 0.0000
4.21700, 2.00, 0.0, 0.0000
4.21900, 2.00, 2.0, 1.4142
4.22100, 2.00, 0.0, 0.0000
4.22300, 2.00, 5.0, 2.2361
4.22500, 2.00, 0.0, 0.0000
4.22700, 2.00, 1.0, 1.0000
4.22900, 2.00, 1.0, 1.0000
4.23100, 2.00, 0.0, 0.0000
4.23300, 2.00, 1.0, 1.0000
4.23500, 2.00, 1.0, 1.0000
4.23700, 2.00, 0.0, 0.0000
4.23900, 2.00, 2.0, 1.4142
4.24100, 2.00, 0.0, 0.0000
4.24300, 2.00, 3.0, 1.7321
4.24500, 2.00, 0.0, 0.0000
4.24700, 2.00, 3.0, 1.7321
4.24900, 2.00, 0.0, 0.0000
4.25100, 2.00, 0.0, 0.0000
4.25300, 2.00, 1.0, 1.0000
4.25500, 2.00, 0.0, 0.0000
4.25700, 2.00, 2.0, 1.4142
4.25900, 2.00, 0.0, 0.0000
4.26100, 2.00, 0.0, 0.0000
4.26300, 2.00, 1.0, 1.0000
4.26500, 2.00, 0.0, 0.0000
4.26700, 2.00, 1.0, 1.0000
4.26900, 2.00, 0.0, 0.0000
4.27100, 2.00, 1.0, 1.0000
4.27300, 2.00, 0.0, 0.0000
4.27500, 2.00, 3.0, 1.7321
4.27700, 2.00, 1.0, 1.0000
4.27900, 2.00, 0.0, 0.0000
4.28100, 2.00, 0.0, 0.0000
4.28300, 2.00, 0.0, 0.0000
4.28500, 2.00, 2.0, 1.4142
4.28700, 2.00, 1.0, 1.0000
4.28900, 2.00, 0.0, 0.0000
4.29100, 2.00, 0.0, 0.0000
4.29300, 2.00, 1.0, 1.0000
4.29500, 2.00, 1.0, 1.0000
4.29700, 2.00, 0.0, 0.0000
4.29900, 2.00, 0.0, 0.0000
4.30100, 2.00, 1.0, 1.0000
4.30300, 2.00, 1.0, 1.0000
4.30500, 2.00, 0.0, 0.0000
4.30700, 2.00, 0.0, 0.0000
4.30900, 2.00, 0.0, 0.0000
4.31100, 2.00, 1.0, 1.0000
4.31300, 2.00, 1.0, 1.0000
4.31500, 2.00, 2.0, 1.4142
4.31700, 2.00, 2.0, 1.4142
4.31900, 2.00, 2.0, 1.4142
4.32100, 2.00, 1.0, 1.0000
4.32300, 2.00, 2.0, 1.4142
4.32500, 2.00, 0.0, 0.0000
4.32700, 2.00, 0.0, 0.0000
4.32900, 2.00, 1.0, 1.0000
4.33100, 2.00, 0.0, 0.0000
4.33300, 2.00, 1.0, 1.0000
4.33500, 2.00, 0.0, 0.0000
4.33700, 2.00, 1.0, 1.0000
4.33900, 2.00, 1.0, 1.0000
4.34100, 2.00, 0.0, 0.0000
4.34300, 2.00, 0.0, 0.0000
4.34500, 2.00, 1.0, 1.0000
4.34700, 2.00, 1.0, 1.0000
4.34900, 2.00, 2.0, 1.4142
4.35100, 2.00, 0.0, 0.0000
4.35300, 2.00, 0.0, 0.0000
4.35500, 2.00, 0.0, 0.0000
4.35700, 2.00, 0.0, 0.0000
4.35900, 2.00, 0.0, 0.0000
4.36100, 2.00, 2.0, 1.4142
4.36300, 2.00, 1.0, 1.0000
4.36500, 2.00, 0.0, 0.0000
4.36700, 2.00, 1.0, 1.0000
4.36900, 2.00, 3.0, 1.7321
4.37100, 2.00, 0.0, 0.0000
4.37300, 2.00, 3.0, 1.7321
4.37500, 2.00, 3.0, 1.7321
4.37700, 2.00, 4.0, 2.0000
4.37900, 2.00, 1.0, 1.0000
4.38100, 2.00, 1.0, 1.0000
4.38300, 2.00, 0.0, 0.0000
4.38500, 2.00, 3.0, 1.7321
4.38700, 2.00, 0.0, 0.0000
4.38900, 2.00, 2.0, 1.4142
4.39100, 2.00, 0.0, 0.0000
4.39300, 2.00, 0.0, 0.0000
4.39500, 2.00, 0.0, 0.0000
4.39700, 2.00, 0.0, 0.0000
4.39900, 2.00, 0.0, 0.0000
4.40100, 2.00, 0.0, 0.0000
4.40300, 2.00, 2.0, 1.4142
4.40500, 2.00, 2.0, 1.4142
4.40700, 2.00, 3.0, 1.7321
4.40900, 2.00, 0.0, 0.0000
4.41100, 2.00, 1.0, 1.0000
4.41300, 2.00, 0.0, 0.0000
4.41500, 2.00, 0.0, 0.0000
4.41700, 2.00, 0.0, 0.0000
4.41900, 2.00, 2.0, 1.4142
4.42100, 2.00, 0.0, 0.0000
4.42300, 2.00, 4.0, 2.0000
4.42500, 2.00, 1.0, 1.0000
4.42700, 2.00, 1.0, 1.0000
4.42900, 2.00, 0.0, 0.0000
4.43100, 2.00, 1.0, 1.0000
4.43300, 2.00, 1.0, 1.0000
4.43500, 2.00, 0.0, 0.0000
4.43700, 2.00, 1.0, 1.0000
4.43900, 2.00, 1.0, 1.0000
4.44100, 2.00, 1.0, 1.0000
4.44300, 2.00, 4.0, 2.0000
4.44500, 2.00, 1.0, 1.0000
4.44700, 2.00, 0.0, 0.0000
4.44900, 2.00, 0.0, 0.0000
4.45100, 2.00, 1.0, 1.0000
4.45300, 2.00, 0.0, 0.0000
4.45500, 2.00, 3.0, 1.7321
4.45700, 2.00, 0.0, 0.0000
4.45900, 2.00, 1.0, 1.0000
4.46100, 2.00, 1.0, 1.0000
4.46300, 2.00, 0.0, 0.0000
4.46500, 2.00, 0.0, 0.0000
4.46700, 2.00, 0.0, 0.0000
4.46900, 2.00, 4.0, 2.0000
4.47100, 2.00, 2.0, 1.4142
4.47300, 2.00, 1.0, 1.0000
4.47500, 2.00, 1.0, 1.0000
4.47700, 2.00, 2.0, 1.4142
4.47900, 2.00, 2.0, 1.4142
4.48100, 2.00, 1.0, 1.0000
4.48300, 2.00, 1.0, 1.0000
4.48500, 2.00, 0.0, 0.0000
4.48700, 2.00, 1.0, 1.0000
4.48900, 2.00, 0.0, 0.0000
4.49100, 2.00, 0.0, 0.0000
4.49300, 2.00, 1.0, 1.0000
4.49500, 2.00, 0.0, 0.0000
4.49700, 2.00, 1.0, 1.0000
4.49900, 2.00, 1.0, 1.0000
4.50100, 2.00, 0.0, 0.0000
4.50300, 2.00, 1.0, 1.0000
4.50500, 2.00, 1.0, 1.0000
4.50700, 2.00, 1.0, 1.0000
4.50900, 2.00, 0.0, 0.0000
4.51100, 2.00, 0.0, 0.0000
4.51300, 2.00, 0.0, 0.0000
4.51500, 2.00, 1.0, 1.0000
4.51700, 2.00, 1.0, 1.0000
4.51900, 2.00, 0.0, 0.0000
4.52100, 2.00, 2.0, 1.4142
4.52300, 2.00, 2.0, 1.4142
4.52500, 2.00, 1.0, 1.0000
4.52700, 2.00, 2.0, 1.4142
4.52900, 2.00, 0.0, 0.0000
4.53100, 2.00, 0.0, 0.0000
4.53300, 2.00, 0.0, 0.0000
4.53500, 2.00, 0.0, 0.0000
4.53700, 2.00, 0.0, 0.0000
4.53900, 2.00, 2.0, 1.4142
4.54100, 2.00, 0.0, 0.0000
4.54300, 2.00, 1.0, 1.0000
4.54500, 2.00, 0.0, 0.0000
4.54700, 2.00, 0.0, 0.0000
4.54900, 2.00, 1.0, 1.0000
4.55100, 2.00, 2.0, 1.4142
4.55300, 2.00, 1.0, 1.0000
4.55500, 2.00, 0.0, 0.0000
4.55700, 2.00, 0.0, 0.0000
4.55900, 2.00, 1.0, 1.0000
4.56100, 2.00, 0.0, 0.0000
4.56300, 2.00, 3.0, 1.7321
4.56500, 2.00, 0.0, 0.0000
4.56700, 2.00, 2.0, 1.4142
4.56900, 2.00, 1.0, 1.0000
4.57100, 2.00, 1.0, 1.0000
4.57300, 2.00, 1.0, 1.0000
4.57500, 2.00, 1.0, 1.0000
4.57700, 2.00, 2.0, 1.4142
4.57900, 2.00, 0.0, 0.0000
4.58100, 2.00, 1.0, 1.0000
4.58300, 2.00, 0.0, 0.0000
4.58500, 2.00, 2.0, 1.4142
4.58700, 2.00, 0.0, 0.0000
4.58900, 2.00, 0.0, 0.0000
4.59100, 2.00, 1.0, 1.0000
4.59300, 2.00, 0.0, 0.0000
4.59500, 2.00, 1.0, 1.0000
4.59700, 2.00, 1.0, 1.0000
4.59900, 2.00, 1.0, 1.0000
4.60100, 2.00, 3.0, 1.7321
4.60300, 2.00, 1.0, 1.0000
4.60500, 2.00, 1.0, 1.0000
4.60700, 2.00, 3.0, 1.7321
4.60900, 2.00, 1.0, 1.0000
4.61100, 2.00, 0.0, 0.0000
4.61300, 2.00, 0.0, 0.0000
4.61500, 2.00, 0.0, 0.0000
4.61700, 2.00, 2.0, 1.4142
4.61900, 2.00, 0.0, 0.0000
4.62100, 2.00, 5.0, 2.2361
4.62300, 2.00, 2.0, 1.4142
4.62500, 2.00, 0.0, 0.0000
4.62700, 2.00, 2.0, 1.4142
4.62900, 2.00, 0.0, 0.0000
4.63100, 2.00, 1.0, 1.0000
4.63300, 2.00, 1.0, 1.0000
4.63500, 2.00, 0.0, 0.0000
4.63700, 2.00, 0.0, 0.0000
4.63900, 2.00, 0.0, 0.0000
4.64100, 2.00, 1.0, 1.0000
4.64300, 2.00, 2.0, 1.4142
4.64500, 2.00, 0.0, 0.0000
4.64700, 2.00, 0.0, 0.0000
4.64900, 2.00, 1.0, 1.0000
4.65100, 2.00, 0.0, 0.0000
4.65300, 2.00, 1.0, 1.0000
4.65500, 2.00, 1.0, 1.0000
4.65700, 2.00, 1.0, 1.0000
4.65900, 2.00, 2.0, 1.4142
4.66100, 2.00, 1.0, 1.0000
4.66300, 2.00, 1.0, 1.0000
4.66500, 2.00, 2.0, 1.4142
4.66700, 2.00, 0.0, 0.0000
4.66900, 2.00, 1.0, 1.0000
4.67100, 2.00, 0.0, 0.0000
4.67300, 2.00, 2.0, 1.4142
4.67500, 2.00, 0.0, 0.0000
4.67700, 2.00, 1.0, 1.0000
4.67900, 2.00, 1.0, 1.0000
4.68100, 2.00, 2.0, 1.4142
4.68300, 2.00, 0.0, 0.0000
4.68500, 2.00, 1.0, 1.0000
4.68700, 2.00, 1.0, 1.0000
4.68900, 2.00, 1.0, 1.0000
4.69100, 2.00, 0.0, 0.0000
4.69300, 2.00, 0.0, 0.0000
4.69500, 2.00, 0.0, 0.0000
4.69700, 2.00, 0.0, 0.0000
4.69900, 2.00, 1.0, 1.0000
4.70100, 2.00, 1.0, 1.0000
4.70300, 2.00, 0.0, 0.0000
4.70500, 2.00, 3.0, 1.7321
4.70700, 2.00, 0.0, 0.0000
4.70900, 2.00, 0.0, 0.0000
4.71100, 2.00, 1.0, 1.0000
4.71300, 2.00, 0.0, 0.0000
4.71500, 2.00, 1.0, 1.0000
4.71700, 2.00, 2.0, 1.4142
4.71900, 2.00, 2.0, 1.4142
4.72100, 2.00, 2.0, 1.4142
4.72300, 2.00, 3.0, 1.7321
4.72500, 2.00, 1.0, 1.0000
4.72700, 2.00, 0.0, 0.0000
4.72900, 2.00, 0.0, 0.0000
4.73100, 2.00, 1.0, 1.0000
4.73300, 2.00, 2.0, 1.4142
4.73500, 2.00, 0.0, 0.0000
4.73700, 2.00, 1.0, 1.0000
4.73900, 2.00, 0.0, 0.0000
4.74100, 2.00, 0.0, 0.0000
4.74300, 2.00, 3.0, 1.7321
4.74500, 2.00, 0.0, 0.0000
4.74700, 2.00, 0.0, 0.0000
4.74900, 2.00, 2.0, 1.4142
4.75100, 2.00, 0.0, 0.0000
4.75300, 2.00, 0.0, 0.0000
4.75500, 2.00, 0.0, 0.0000
4.75700, 2.00, 2.0, 1.4142
4.75900, 2.00, 1.0, 1.0000
4.76100, 2.00, 1.0, 1.0000
4.76300, 2.00, 0.0, 0.0000
4.76500, 2.00, 1.0, 1.0000
4.76700, 2.00, 1.0, 1.0000
4.76900, 2.00, 0.0, 0.0000
4.77100, 2.00, 2.0, 1.4142
4.77300, 2.00, 1.0, 1.0000
4.77500, 2.00, 0.0, 0.0000
4.77700, 2.00, 1.0, 1.0000
4.77900, 2.00, 0.0, 0.0000
4.78100, 2.00, 1.0, 1.0000
4.78300, 2.00, 1.0, 1.0000
4.78500, 2.00, 0.0, 0.0000
4.78700, 2.00, 1.0, 1.0000
4.78900, 2.00, 0.0, 0.0000
4.79100, 2.00, 2.0, 1.4142
4.79300, 2.00, 1.0, 1.0000
4.79500, 2.00, 1.0, 1.0000
4.79700, 2.00, 0.0, 0.0000
4.79900, 2.00, 2.0, 1.4142
4.80100, 2.00, 3.0, 1.7321
4.80300, 2.00, 1.0, 1.0000
4.80500, 2.00, 1.0, 1.0000
4.80700, 2.00, 0.0, 0.0000
4.80900, 2.00, 1.0, 1.0000
4.81100, 2.00, 0.0, 0.0000
4.81300, 2.00, 0.0, 0.0000
4.81500, 2.00, 0.0, 0.0000
4.81700, 2.00, 1.0, 1.0000
4.81900, 2.00, 0.0, 0.0000
4.82100, 2.00, 1.0, 1.0000
4.82300, 2.00, 0.0, 0.0000
4.82500, 2.00, 0.0, 0.0000
4.82700, 2.00, 1.0, 1.0000
4.82900, 2.00, 0.0, 0.0000
4.83100, 2.00, 1.0, 1.0000
4.83300, 2.00, 2.0, 1.4142
4.83500, 2.00, 0.0, 0.0000
4.83700, 2.00, 1.0, 1.0000
4.83900, 2.00, 1.0, 1.0000
4.84100, 2.00, 0.0, 0.0000
4.84300, 2.00, 1.0, 1.0000
4.84500, 2.00, 1.0, 1.0000
4.84700, 2.00, 1.0, 1.0000
4.84900, 2.00, 0.0, 0.0000
4.85100, 2.00, 2.0, 1.4142
4.85300, 2.00, 0.0, 0.0000
4.85500, 2.00, 1.0, 1.0000
4.85700, 2.00, 0.0, 0.0000
4.85900, 2.00, 2.0, 1.4142
4.86100, 2.00, 0.0, 0.0000
4.86300, 2.00, 3.0, 1.7321
4.86500, 2.00, 2.0, 1.4142
4.86700, 2.00, 0.0, 0.0000
4.86900, 2.00, 0.0, 0.0000
4.87100, 2.00, 0.0, 0.0000
4.87300, 2.00, 1.0, 1.0000
4.87500, 2.00, 1.0, 1.0000
4.87700, 2.00, 0.0, 0.0000
4.87900, 2.00, 2.0, 1.4142
4.88100, 2.00, 1.0, 1.0000
4.88300, 2.00, 1.0, 1.0000
4.88500, 2.00, 1.0, 1.0000
4.88700, 2.00, 2.0, 1.4142
4.88900, 2.00, 1.0, 1.0000
4.89100, 2.00, 0.0, 0.0000
4.89300, 2.00, 1.0, 1.0000
4.89500, 2.00, 1.0, 1.0000
4.89700, 2.00, 1.0, 1.0000
4.89900, 2.00, 1.0, 1.0000
4.90100, 2.00, 3.0, 1.7321
4.90300, 2.00, 2.0, 1.4142
4.90500, 2.00, 1.0, 1.0000
4.90700, 2.00, 0.0, 0.0000
4.90900, 2.00, 2.0, 1.4142
4.91100, 2.00, 3.0, 1.7321
4.91300, 2.00, 0.0, 0.0000
4.91500, 2.00, 1.0, 1.0000
4.91700, 2.00, 0.0, 0.0000
4.91900, 2.00, 0.0, 0.0000
4.92100, 2.00, 0.0, 0.0000
4.92300, 2.00, 4.0, 2.0000
4.92500, 2.00, 2.0, 1.4142
4.92700, 2.00, 1.0, 1.0000
4.92900, 2.00, 3.0, 1.7321
4.93100, 2.00, 0.0, 0.0000
4.93300, 2.00, 1.0, 1.0000
4.93500, 2.00, 0.0, 0.0000
4.93700, 2.00, 1.0, 1.0000
4.93900, 2.00, 1.0, 1.0000
4.94100, 2.00, 1.0, 1.0000
4.94300, 2.00, 3.0, 1.7321
4.94500, 2.00, 1.0, 1.0000
4.94700, 2.00, 1.0, 1.0000
4.94900, 2.00, 0.0, 0.0000
4.95100, 2.00, 2.0, 1.4142
4.95300, 2.00, 0.0, 0.0000
4.95500, 2.00, 1.0, 1.0000
4.95700, 2.00, 1.0, 1.0000
4.95900, 2.00, 0.0, 0.0000
4.96100, 2.00, 0.0, 0.0000
4.96300, 2.00, 1.0, 1.0000
4.96500, 2.00, 0.0, 0.0000
4.96700, 2.00, 2.0, 1.4142
4.96900, 2.00, 0.0, 0.0000
4.97100, 2.00, 2.0, 1.4142
4.97300, 2.00, 3.0, 1.7321
4.97500, 2.00, 3.0, 1.7321
4.97700, 2.00, 2.0, 1.4142
4.97900, 2.00, 1.0, 1.0000
4.98100, 2.00, 1.0, 1.0000
4.98300, 2.00, 1.0, 1.0000
4.98500, 2.00, 2.0, 1.4142
4.98700, 2.00, 3.0, 1.7321
4.98900, 2.00, 2.0, 1.4142
4.99100, 2.00, 3.0, 1.7321
4.99300, 2.00, 6.0, 2.4495
4.99500, 2.00, 5.0, 2.2361
4.99700, 2.00, 4.0, 2.0000
4.99900, 2.00, 1.0, 1.0000
5.00100, 2.00, 6.0, 2.4495
5.00300, 2.00, 1.0, 1.0000
5.00500, 2.00, 9.0, 3.0000
5.00700, 2.00, 8.0, 2.8284
5.00900, 2.00, 13.0, 3.6056
5.01100, 2.00, 9.0, 3.0000
5.01300, 2.00, 6.0, 2.4495
5.01500, 2.00, 6.0, 2.4495
5.01700, 2.00, 5.0, 2.2361
5.01900, 2.00, 8.0, 2.8284
5.02100, 2.00, 14.0, 3.7417
5.02300, 2.00, 13.0, 3.6056
5.02500, 2.00, 8.0, 2.8284
5.02700, 2.00, 9.0, 3.0000
5.02900, 2.00, 10.0, 3.1623
5.03100, 2.00, 9.0, 3.0000
5.03300, 2.00, 4.0, 2.0000
5.03500, 2.00, 5.0, 2.2361
5.03700, 2.00, 12.0, 3.4641
5.03900, 2.00, 12.0, 3.4641
5.04100, 2.00, 9.0, 3.0000
5.04300, 2.00, 14.0, 3.7417
5.04500, 2.00, 17.0, 4.1231
5.04700, 2.00, 17.0, 4.1231
5.04900, 2.00, 17.0, 4.1231
5.05100, 2.00, 10.0, 3.1623
5.05300, 2.00, 19.0, 4.3589
5.05500, 2.00, 13.0, 3.6056
5.05700, 2.00, 10.0, 3.1623
5.05900, 2.00, 25.0, 5.0000
5.06100, 2.00, 26.0, 5.0990
5.06300, 2.00, 18.0, 4.2426
5.06500, 2.00, 23.0, 4.7958
5.06700, 2.00, 11.0, 3.3166
5.06900, 2.00, 18.0, 4.2426
5.07100, 2.00, 15.0, 3.8730
5.07300, 2.00, 14.0, 3.7417
5.07500, 2.00, 17.0, 4.1231
5.07700, 2.00, 11.0, 3.3166
5.07900, 2.00, 26.0, 5.0990
5.08100, 2.00, 38.0, 6.1644
5.08300, 2.00, 39.0, 6.2450
5.08500, 2.00, 42.0, 6.4807
5.08700, 2.00, 69.0, 8.3066
5.08900, 2.00, 84.0, 9.1652
5.09100, 2.00, 85.0, 9.2195
5.09300, 2.00, 83.0, 9.1104
5.09500, 2.00, 67.0, 8.1854
5.09700, 2.00, 80.0, 8.9443
5.09900, 2.00, 74.0, 8.6023
5.10100, 2.00, 75.0, 8.6603
5.10300, 2.00, 61.0, 7.8102
5.10500, 2.00, 42.0, 6.4807
5.10700, 2.00, 47.0, 6.8557
5.10900, 2.00, 39.0, 6.2450
5.11100, 2.00, 21.0, 4.5826
5.11300, 2.00, 21.0, 4.5826
5.11500, 2.00, 6.0, 2.4495
5.11700, 2.00, 7.0, 2.6458
5.11900, 2.00, 5.0, 2.2361
5.12100, 2.00, 2.0, 1.4142
5.12300, 2.00, 4.0, 2.0000
5.12500, 2.00, 0.0, 0.0000
5.12700, 2.00, 0.0, 0.0000
5.12900, 2.00, 1.0, 1.0000
5.13100, 2.00, 0.0, 0.0000
5.13300, 2.00, 0.0, 0.0000
5.13500, 2.00, 0.0, 0.0000
5.13700, 2.00, 0.0, 0.0000
5.13900, 2.00, 2.0, 1.4142
5.14100, 2.00, 1.0, 1.0000
5.14300, 2.00, 1.0, 1.0000
5.14500, 2.00, 1.0, 1.0000
5.14700, 2.00, 0.0, 0.0000
5.14900, 2.00, 1.0, 1.0000
5.15100, 2.00, 0.0, 0.0000
5.15300, 2.00, 1.0, 1.0000
5.15500, 2.00, 1.0, 1.0000
5.15700, 2.00, 1.0, 1.0000
5.15900, 2.00, 1.0, 1.0000
5.16100, 2.00, 1.0, 1.0000
5.16300, 2.00, 1.0, 1.0000
5.16500, 2.00, 1.0, 1.0000
5.16700, 2.00, 1.0, 1.0000
5.16900, 2.00, 1.0, 1.0000
5.17100, 2.00, 0.0, 0.0000
5.17300, 2.00, 0.0, 0.0000
5.17500, 2.00, 0.0, 0.0000
5.17700, 2.00, 0.0, 0.0000
5.17900, 2.00, 1.0, 1.0000
5.18100, 2.00, 0.0, 0.0000
5.18300, 2.00, 0.0, 0.0000
5.18500, 2.00, 1.0, 1.0000
5.18700, 2.00, 0.0, 0.0000
5.18900, 2.00, 0.0, 0.0000
5.19100, 2.00, 0.0, 0.0000
5.19300, 2.00, 0.0, 0.0000
5.19500, 2.00, 1.0, 1.0000
5.19700, 2.00, 1.0, 1.0000
5.19900, 2.00, 0.0, 0.0000
5.20100, 2.00, 0.0, 0.0000
5.20300, 2.00, 0.0, 0.0000
5.20500, 2.00, 0.0, 0.0000
5.20700, 2.00, 1.0, 1.0000
5.20900, 2.00, 0.0, 0.0000
5.21100, 2.00, 0.0, 0.0000
5.21300, 2.00, 0.0, 0.0000
5.21500, 2.00, 1.0, 1.0000
5.21700, 2.00, 0.0, 0.0000
5.21900, 2.00, 0.0, 0.0000
5.22100, 2.00, 1.0, 1.0000
5.22300, 2.00, 1.0, 1.0000
5.22500, 2.00, 1.0, 1.0000
5.22700, 2.00, 1.0, 1.0000
5.22900, 2.00, 1.0, 1.0000
5.23100, 2.00, 1.0, 1.0000
5.23300, 2.00, 0.0, 0.0000
5.23500, 2.00, 1.0, 1.0000
5.23700, 2.00, 0.0, 0.0000
5.23900, 2.00, 0.0, 0.0000
5.24100, 2.00, 0.0, 0.0000
5.24300, 2.00, 0.0, 0.0000
5.24500, 2.00, 0.0, 0.0000
5.24700, 2.00, 0.0, 0.0000
5.24900, 2.00, 0.0, 0.0000
5.25100, 2.00, 0.0, 0.0000
5.25300, 2.00, 0.0, 0.0000
5.25500, 2.00, 1.0, 1.0000
5.25700, 2.00, 0.0, 0.0000
5.25900, 2.00, 0.0, 0.0000
5.26100, 2.00, 0.0, 0.0000
5.26300, 2.00, 0.0, 0.0000
5.26500, 2.00, 0.0, 0.0000
5.26700, 2.00, 0.0, 0.0000
5.26900, 2.00, 2.0, 1.4142
5.27100, 2.00, 2.0, 1.4142
5.27300, 2.00, 0.0, 0.0000
5.27500, 2.00, 2.0, 1.4142
5.27700, 2.00, 0.0, 0.0000
5.27900, 2.00, 0.0, 0.0000
5.28100, 2.00, 0.0, 0.0000
5.28300, 2.00, 1.0, 1.0000
5.28500, 2.00, 1.0, 1.0000
5.28700, 2.00, 0.0, 0.0000
5.28900, 2.00, 0.0, 0.0000
5.29100, 2.00, 0.0, 0.0000
5.29300, 2.00, 0.0, 0.0000
5.29500, 2.00, 1.0, 1.0000
5.29700, 2.00, 0.0, 0.0000
5.29900, 2.00, 0.0, 0.0000
5.30100, 2.00, 0.0, 0.0000
5.30300, 2.00, 0.0, 0.0000
5.30500, 2.00, 1.0, 1.0000
5.30700, 2.00, 0.0, 0.0000
5.30900, 2.00, 1.0, 1.0000
5.31100, 2.00, 0.0, 0.0000
5.31300, 2.00, 0.0, 0.0000
5.31500, 2.00, 0.0, 0.0000
5.31700, 2.00, 0.0, 0.0000
5.31900, 2.00, 0.0, 0.0000
5.32100, 2.00, 0.0, 0.0000
5.32300, 2.00, 0.0, 0.0000
5.32500, 2.00, 0.0, 0.0000
5.32700, 2.00, 1.0, 1.0000
5.32900, 2.00, 0.0, 0.0000
5.33100, 2.00, 0.0, 0.0000
5.33300, 2.00, 0.0, 0.0000
5.33500, 2.00, 0.0, 0.0000
5.33700, 2.00, 0.0, 0.0000
5.33900, 2.00, 1.0, 1.0000
5.34100, 2.00, 0.0, 0.0000
5.34300, 2.00, 0.0, 0.0000
5.34500, 2.00, 0.0, 0.0000
5.34700, 2.00, 0.0, 0.0000
5.34900, 2.00, 0.0, 0.0000
5.35100, 2.00, 0.0, 0.0000
5.35300, 2.00, 1.0, 1.0000
5.35500, 2.00, 0.0, 0.0000
5.35700, 2.00, 2.0, 1.4142
5.35900, 2.00, 1.0, 1.0000
5.36100, 2.00, 0.0, 0.0000
5.36300, 2.00, 0.0, 0.0000
5.36500, 2.00, 0.0, 0.0000
5.36700, 2.00, 0.0, 0.0000
5.36900, 2.00, 0.0, 0.0000
5.37100, 2.00, 0.0, 0.0000
5.37300, 2.00, 0.0, 0.0000
5.37500, 2.00, 0.0, 0.0000
5.37700, 2.00, 0.0, 0.0000
5.37900, 2.00, 0.0, 0.0000
5.38100, 2.00, 0.0, 0.0000
5.38300, 2.00, 0.0, 0.0000
5.38500, 2.00, 1.0, 1.0000
5.38700, 2.00, 0.0, 0.0000
5.38900, 2.00, 0.0, 0.0000
5.39100, 2.00, 0.0, 0.0000
5.39300, 2.00, 2.0, 1.4142
5.39500, 2.00, 0.0, 0.0000
5.39700, 2.00, 0.0, 0.0000
5.39900, 2.00, 0.0, 0.0000
5.40100, 2.00, 0.0, 0.0000
5.40300, 2.00, 1.0, 1.0000
5.40500, 2.00, 1.0, 1.0000
5.40700, 2.00, 0.0, 0.0000
5.40900, 2.00, 0.0, 0.0000
5.41100, 2.00, 0.0, 0.0000
5.41300, 2.00, 0.0, 0.0000
5.41500, 2.00, 0.0, 0.0000
5.41700, 2.00, 0.0, 0.0000
5.41900, 2.00, 1.0, 1.0000
5.42100, 2.00, 0.0, 0.0000
5.42300, 2.00, 1.0, 1.0000
5.42500, 2.00, 0.0, 0.0000
5.42700, 2.00, 0.0, 0.0000
5.42900, 2.00, 0.0, 0.0000
5.43100, 2.00, 1.0, 1.0000
5.43300, 2.00, 0.0, 0.0000
5.43500, 2.00, 0.0, 0.0000
5.43700, 2.00, 1.0, 1.0000
5.43900, 2.00, 0.0, 0.0000
5.44100, 2.00, 2.0, 1.4142
5.44300, 2.00, 0.0, 0.0000
5.44500, 2.00, 0.0, 0.0000
5.44700, 2.00, 0.0, 0.0000
5.44900, 2.00, 0.0, 0.0000
5.45100, 2.00, 0.0, 0.0000
5.45300, 2.00, 0.0, 0.0000
5.45500, 2.00, 0.0, 0.0000
5.45700, 2.00, 0.0, 0.0000
5.45900, 2.00, 0.0, 0.0000
5.46100, 2.00, 0.0, 0.0000
5.46300, 2.00, 1.0, 1.0000
5.46500, 2.00, 0.0, 0.0000
5.46700, 2.00, 0.0, 0.0000
5.46900, 2.00, 1.0, 1.0000
5.47100, 2.00, 0.0, 0.0000
5.47300, 2.00, 2.0, 1.4142
5.47500, 2.00, 0.0, 0.0000
5.47700, 2.00, 0.0, 0.0000
5.47900, 2.00, 0.0, 0.0000
5.48100, 2.00, 0.0, 0.0000
5.48300, 2.00, 0.0, 0.0000
5.48500, 2.00, 0.0, 0.0000
5.48700, 2.00, 0.0, 0.0000
5.48900, 2.00, 0.0, 0.0000
5.49100, 2.00, 0.0, 0.0000
5.49300, 2.00, 0.0, 0.0000
5.49500, 2.00, 0.0, 0.0000
5.49700, 2.00, 0.0, 0.0000
5.49900, 2.00, 0.0, 0.0000
5.50100, 2.00, 0.0, 0.0000
5.50300, 2.00, 0.0, 0.0000
5.50500, 2.00, 0.0, 0.0000
5.50700, 2.00, 0.0, 0.0000
5.50900, 2.00, 0.0, 0.0000
5.51100, 2.00, 0.0, 0.0000
5.51300, 2.00, 0.0, 0.0000
5.51500, 2.00, 1.0, 1.0000
5.51700, 2.00, 0.0, 0.0000
5.51900, 2.00, 0.0, 0.0000
5.52100, 2.00, 0.0, 0.0000
5.52300, 2.00, 0.0, 0.0000
5.52500, 2.00, 0.0, 0.0000
5.52700, 2.00, 0.0, 0.0000
5.52900, 2.00, 0.0, 0.0000
5.53100, 2.00, 0.0, 0.0000
5.53300, 2.00, 0.0, 0.0000
5.53500, 2.00, 0.0, 0.0000
5.53700, 2.00, 0.0, 0.0000
5.53900, 2.00, 0.0, 0.0000
5.54100, 2.00, 0.0, 0.0000
5.54300, 2.00, 0.0, 0.0000
5.54500, 2.00, 0.0, 0.0000
5.54700, 2.00, 0.0, 0.0000
5.54900, 2.00, 0.0, 0.0000
5.55100, 2.00, 0.0, 0.0000
5.55300, 2.00, 0.0, 0.0000
5.55500, 2.00, 0.0, 0.0000
5.55700, 2.00, 0.0, 0.0000
5.55900, 2.00, 0.0, 0.0000
5.56100, 2.00, 1.0, 1.0000
5.56300, 2.00, 0.0, 0.0000
5.56500, 2.00, 2.0, 1.4142
5.56700, 2.00, 0.0, 0.0000
5.56900, 2.00, 0.0, 0.0000
5.57100, 2.00, 0.0, 0.0000
5.57300, 2.00, 0.0, 0.0000
5.57500, 2.00, 0.0, 0.0000
5.57700, 2.00, 0.0, 0.0000
5.57900, 2.00, 0.0, 0.0000
5.58100, 2.00, 1.0, 1.0000
5.58300, 2.00, 0.0, 0.0000
5.58500, 2.00, 1.0, 1.0000
5.58700, 2.00, 1.0, 1.0000
5.58900, 2.00, 0.0, 0.0000
5.59100, 2.00, 1.0, 1.0000
5.59300, 2.00, 0.0, 0.0000
5.59500, 2.00, 1.0, 1.0000
5.59700, 2.00, 0.0, 0.0000
5.59900, 2.00, 0.0, 0.0000
5.60100, 2.00, 1.0, 1.0000
5.60300, 2.00, 0.0, 0.0000
5.60500, 2.00, 0.0, 0.0000
5.60700, 2.00, 0.0, 0.0000
5.60900, 2.00, 1.0, 1.0000
5.61100, 2.00, 0.0, 0.0000
5.61300, 2.00, 0.0, 0.0000
5.61500, 2.00, 0.0, 0.0000
5.61700, 2.00, 0.0, 0.0000
5.61900, 2.00, 0.0, 0.0000
5.62100, 2.00, 0.0, 0.0000
5.62300, 2.00, 0.0, 0.0000
5.62500, 2.00, 0.0, 0.0000
5.62700, 2.00, 0.0, 0.0000
5.62900, 2.00, 0.0, 0.0000
5.63100, 2.00, 1.0, 1.0000
5.63300, 2.00, 0.0, 0.0000
5.63500, 2.00, 0.0, 0.0000
5.63700, 2.00, 0.0, 0.0000
5.63900, 2.00, 0.0, 0.0000
5.64100, 2.00, 1.0, 1.0000
5.64300, 2.00, 0.0, 0.0000
5.64500, 2.00, 1.0, 1.0000
5.64700, 2.00, 1.0, 1.0000
5.64900, 2.00, 0.0, 0.0000
5.65100, 2.00, 0.0, 0.0000
5.65300, 2.00, 2.0, 1.4142
5.65500, 2.00, 0.0, 0.0000
5.65700, 2.00, 0.0, 0.0000
5.65900, 2.00, 0.0, 0.0000
5.66100, 2.00, 0.0, 0.0000
5.66300, 2.00, 1.0, 1.0000
5.66500, 2.00, 1.0, 1.0000
5.66700, 2.00, 0.0, 0.0000
5.66900, 2.00, 0.0, 0.0000
5.67100, 2.00, 0.0, 0.0000
5.67300, 2.00, 0.0, 0.0000
5.67500, 2.00, 1.0, 1.0000
5.67700, 2.00, 0.0, 0.0000
5.67900, 2.00, 0.0, 0.0000
5.68100, 2.00, 1.0, 1.0000
5.68300, 2.00, 0.0, 0.0000
5.68500, 2.00, 0.0, 0.0000
5.68700, 2.00, 0.0, 0.0000
5.68900, 2.00, 0.0, 0.0000
5.69100, 2.00, 0.0, 0.0000
5.69300, 2.00, 0.0, 0.0000
5.69500, 2.00, 0.0, 0.0000
5.69700, 2.00, 2.0, 1.4142
5.69900, 2.00, 0.0, 0.0000
5.70100, 2.00, 0.0, 0.0000
5.70300, 2.00, 0.0, 0.0000
5.70500, 2.00, 0.0, 0.0000
5.70700, 2.00, 0.0, 0.0000
5.70900, 2.00, 1.0, 1.0000
5.71100, 2.00, 0.0, 0.0000
5.71300, 2.00, 0.0, 0.0000
5.71500, 2.00, 0.0, 0.0000
5.71700, 2.00, 0.0, 0.0000
5.71900, 2.00, 0.0, 0.0000
5.72100, 2.00, 0.0, 0.0000
5.72300, 2.00, 0.0, 0.0000
5.72500, 2.00, 1.0, 1.0000
5.72700, 2.00, 0.0, 0.0000
5.72900, 2.00, 0.0, 0.0000
5.73100, 2.00, 1.0, 1.0000
5.73300, 2.00, 2.0, 1.4142
5.73500, 2.00, 1.0, 1.0000
5.73700, 2.00, 0.0, 0.0000
5.73900, 2.00, 0.0, 0.0000
5.74100, 2.00, 0.0, 0.0000
5.74300, 2.00, 0.0, 0.0000
5.74500, 2.00, 0.0, 0.0000
5.74700, 2.00, 0.0, 0.0000
5.74900, 2.00, 0.0, 0.0000
5.75100, 2.00, 0.0, 0.0000
5.75300, 2.00, 0.0, 0.0000
5.75500, 2.00, 0.0, 0.0000
5.75700, 2.00, 0.0, 0.0000
5.75900, 2.00, 0.0, 0.0000
5.76100, 2.00, 0.0, 0.0000
5.76300, 2.00, 0.0, 0.0000
5.76500, 2.00, 1.0, 1.0000
5.76700, 2.00, 0.0, 0.0000
5.76900, 2.00, 0.0, 0.0000
5.77100, 2.00, 0.0, 0.0000
5.77300, 2.00, 0.0, 0.0000
5.77500, 2.00, 0.0, 0.0000
5.77700, 2.00, 0.0, 0.0000
5.77900, 2.00, 0.0, 0.0000
5.78100, 2.00, 2.0, 1.4142
5.78300, 2.00, 1.0, 1.0000
5.78500, 2.00, 0.0, 0.0000
5.78700, 2.00, 0.0, 0.0000
5.78900, 2.00, 0.0, 0.0000
5.79100, 2.00, 0.0, 0.0000
5.79300, 2.00, 1.0, 1.0000
5.79500, 2.00, 0.0, 0.0000
5.79700, 2.00, 0.0, 0.0000
5.79900, 2.00, 2.0, 1.4142
5.80100, 2.00, 0.0, 0.0000
5.80300, 2.00, 0.0, 0.0000
5.80500, 2.00, 1.0, 1.0000
5.80700, 2.00, 0.0, 0.0000
5.80900, 2.00, 0.0, 0.0000
5.81100, 2.00, 2.0, 1.4142
5.81300, 2.00, 0.0, 0.0000
5.81500, 2.00, 0.0, 0.0000
5.81700, 2.00, 0.0, 0.0000
5.81900, 2.00, 0.0, 0.0000
5.82100, 2.00, 1.0, 1.0000
5.82300, 2.00, 0.0, 0.0000
5.82500, 2.00, 0.0, 0.0000
5.82700, 2.00, 0.0, 0.0000
5.82900, 2.00, 0.0, 0.0000
5.83100, 2.00, 1.0, 1.0000
5.83300, 2.00, 0.0, 0.0000
5.83500, 2.00, 0.0, 0.0000
5.83700, 2.00, 0.0, 0.0000
5.83900, 2.00, 1.0, 1.0000
5.84100, 2.00, 0.0, 0.0000
5.84300, 2.00, 0.0, 0.0000
5.84500, 2.00, 0.0, 0.0000
5.84700, 2.00, 0.0, 0.0000
5.84900, 2.00, 0.0, 0.0000
5.85100, 2.00, 1.0, 1.0000
5.85300, 2.00, 0.0, 0.0000
5.85500, 2.00, 0.0, 0.0000
5.85700, 2.00, 0.0, 0.0000
5.85900, 2.00, 0.0, 0.0000
5.86100, 2.00, 0.0, 0.0000
5.86300, 2.00, 0.0, 0.0000
5.86500, 2.00, 0.0, 0.0000
5.86700, 2.00, 0.0, 0.0000
5.86900, 2.00, 0.0, 0.0000
5.87100, 2.00, 0.0, 0.0000
5.87300, 2.00, 0.0, 0.0000
5.87500, 2.00, 0.0, 0.0000
5.87700, 2.00, 1.0, 1.0000
5.87900, 2.00, 1.0, 1.0000
5.88100, 2.00, 0.0, 0.0000
5.88300, 2.00, 0.0, 0.0000
5.88500, 2.00, 0.0, 0.0000
5.88700, 2.00, 0.0, 0.0000
5.88900, 2.00, 0.0, 0.0000
5.89100, 2.00, 0.0, 0.0000
5.89300, 2.00, 0.0, 0.0000
5.89500, 2.00, 0.0, 0.0000
5.89700, 2.00, 0.0, 0.0000
5.89900, 2.00, 0.0, 0.0000
5.90100, 2.00, 0.0, 0.0000
5.90300, 2.00, 0.0, 0.0000
5.90500, 2.00, 0.0, 0.0000
5.90700, 2.00, 0.0, 0.0000
5.90900, 2.00, 0.0, 0.0000
5.91100, 2.00, 0.0, 0.0000
5.91300, 2.00, 0.0, 0.0000
5.91500, 2.00, 0.0, 0.0000
5.91700, 2.00, 0.0, 0.0000
5.91900, 2.00, 0.0, 0.0000
5.92100, 2.00, 1.0, 1.0000
5.92300, 2.00, 0.0, 0.0000
5.92500, 2.00, 0.0, 0.0000
5.92700, 2.00, 0.0, 0.0000
5.92900, 2.00, 0.0, 0.0000
5.93100, 2.00, 0.0, 0.0000
5.93300, 2.00, 0.0, 0.0000
5.93500, 2.00, 0.0, 0.0000
5.93700, 2.00, 0.0, 0.0000
5.93900, 2.00, 1.0, 1.0000
5.94100, 2.00, 0.0, 0.0000
5.94300, 2.00, 0.0, 0.0000
5.94500, 2.00, 0.0, 0.0000
5.94700, 2.00, 0.0, 0.0000
5.94900, 2.00, 0.0, 0.0000
5.95100, 2.00, 1.0, 1.0000
5.95300, 2.00, 0.0, 0.0000
5.95500, 2.00, 0.0, 0.0000
5.95700, 2.00, 1.0, 1.0000
5.95900, 2.00, 0.0, 0.0000
5.96100, 2.00, 0.0, 0.0000
5.96300, 2.00, 0.0, 0.0000
5.96500, 2.00, 0.0, 0.0000
5.96700, 2.00, 1.0, 1.0000
5.96900, 2.00, 0.0, 0.0000
5.97100, 2.00, 0.0, 0.0000
5.97300, 2.00, 0.0, 0.0000
5.97500, 2.00, 1.0, 1.0000
5.97700, 2.00, 0.0, 0.0000
5.97900, 2.00, 1.0, 1.0000
5.98100, 2.00, 0.0, 0.0000
5.98300, 2.00, 0.0, 0.0000
5.98500, 2.00, 0.0, 0.0000
5.98700, 2.00, 0.0, 0.0000
5.98900, 2.00, 0.0, 0.0000
5.99100, 2.00, 0.0, 0.0000
5.99300, 2.00, 1.0, 1.0000
5.99500, 2.00, 1.0, 1.0000
5.99700, 2.00, 1.0, 1.0000
5.99900, 2.00, 0.0, 0.0000
