[Measurement conditions]
Sample identification,
Comment - 1,"Configuration=Parallel Beam for 4inch holder, Owner=MRD, Creation date=2012/03/27 14:08:09"
Comment - 2,"Goniometer=PW3050/65 (Theta/2Theta); Minimum step size 2Theta:0.0001; Minimum step size Omega:0.0001"
Comment - 3,"Sample stage=MRD Cradle; Minimum step size Phi:0.01; Minimum step size Chi:0.01; Minimum step size X:0.01; Minimum step size Y:0.01; Minimum step size Z:0.001"
Comment - 4,"Diffractometer system=XPERT-PRO"
Comment - 5,"Measurement program=C:\PANalytical\Data Collector\Programs\Reflectivity_Batch.xrdmp, Created identifier={007932df-34e3-4485-9cdc-ce5737d00380}, Created by=User-1, Id=User-1, Creation date=2012/04/06 17:50:18, Modified identifier={01A055E3-DCDA-4635-B331-E09B5544CB74}, Modified by=MRD, Id=WL:DESKTOP-LQ4LR9T:MRD, Modification date=2026/06/06 6:36:24"
Comment - 6,"Fine Calibration Offset for 2Theta = 0.0002 deg"
Comment - 7,"Batch program=C:\PANalytical\Data Collector\Programs\Reflectivity_Batch_4inch.xrdmp, Created identifier={960d4441-9b31-4165-bf03-2a9b383547c1}, Created by=User-1, Id=User-1, Creation date=2012/04/06 17:52:19, Modified identifier={1DDEFD67-F033-44A2-A541-9D9449C44B64}, Modified by=MRD, Id=WL:DESKTOP-LQ4LR9T:MRD, Modification date=2026/01/14 13:23:43"
Anode material,Cu
K-Alpha1 wavelength,1.5405980
K-Alpha2 wavelength,1.5444260
Ratio K-Alpha2/K-Alpha1,0.000
Monochromator used,YES
Generator voltage, 45
Tube current, 40
File date and time,06/6/2026 06:54
Unit cell,
h k l, 0 0 0
Scan axis,Omega-2Theta
Scan range,-0.10000,6.00000
Scan step size,0.0020000
Omega offset,0.0000
No. of points, 3050
Scan type,CONTINUOUS
Phi,0.00
Psi,-0.48
X,0.00
Y,0.00
Z,9.302
Time per step,2.00
[Scan points]
Angle, TimePerStep, Intensity, ESD
-0.09900, 2.00, 1.0, 1.0000
-0.09700, 2.00, 3.0, 1.7321
-0.09500, 2.00, 2.0, 1.4142
-0.09300, 2.00, 0.0, 0.0000
-0.09100, 2.00, 4.0, 2.0000
-0.08900, 2.00, 1.0, 1.0000
-0.08700, 2.00, 0.0, 0.0000
-0.08500, 2.00, 1.0, 1.0000
-0.08300, 2.00, 0.0, 0.0000
-0.08100, 2.00, 1.0, 1.0000
-0.07900, 2.00, 3.0, 1.7321
-0.07700, 2.00, 2.0, 1.4142
-0.07500, 2.00, 1.0, 1.0000
-0.07300, 2.00, 1.0, 1.0000
-0.07100, 2.00, 0.0, 0.0000
-0.06900, 2.00, 0.0, 0.0000
-0.06700, 2.00, 3.0, 1.7321
-0.06500, 2.00, 0.0, 0.0000
-0.06300, 2.00, 0.0, 0.0000
-0.06100, 2.00, 1.0, 1.0000
-0.05900, 2.00, 1.0, 1.0000
-0.05700, 2.00, 0.0, 0.0000
-0.05500, 2.00, 2.0, 1.4142
-0.05300, 2.00, 2.0, 1.4142
-0.05100, 2.00, 3.0, 1.7321
-0.04900, 2.00, 1.0, 1.0000
-0.04700, 2.00, 1.0, 1.0000
-0.04500, 2.00, 2.0, 1.4142
-0.04300, 2.00, 0.0, 0.0000
-0.04100, 2.00, 2.0, 1.4142
-0.03900, 2.00, 2.0, 1.4142
-0.03700, 2.00, 0.0, 0.0000
-0.03500, 2.00, 4.0, 2.0000
-0.03300, 2.00, 2.0, 1.4142
-0.03100, 2.00, 2.0, 1.4142
-0.02900, 2.00, 1.0, 1.0000
-0.02700, 2.00, 3.0, 1.7321
-0.02500, 2.00, 5.0, 2.2361
-0.02300, 2.00, 5.0, 2.2361
-0.02100, 2.00, 8.0, 2.8284
-0.01900, 2.00, 9.0, 3.0000
-0.01700, 2.00, 10.0, 3.1623
-0.01500, 2.00, 21.0, 4.5826
-0.01300, 2.00, 94.0, 9.6954
-0.01100, 2.00, 493.0, 22.2036
-0.00900, 2.00, 3029.0, 55.0364
-0.00700, 2.00, 17900.0, 133.7909
-0.00500, 2.00, 91407.0, 302.3359
-0.00300, 2.00, 385706.0, 621.0523
-0.00100, 2.00, 1121718.0, 9049.0560
0.00100, 2.00, 2519303.0, 13561.3096
0.00300, 2.00, 3701757.0, 16438.6210
0.00500, 2.00, 3755631.0, 16557.8097
0.00700, 2.00, 2920657.0, 14601.6424
0.00900, 2.00, 1975161.0, 12007.7789
0.01100, 2.00, 1262681.0, 9600.8184
0.01300, 2.00, 865735.0, 930.4488
0.01500, 2.00, 592527.0, 769.7578
0.01700, 2.00, 473051.0, 687.7870
0.01900, 2.00, 428451.0, 654.5617
0.02100, 2.00, 417608.0, 646.2260
0.02300, 2.00, 426561.0, 653.1164
0.02500, 2.00, 445951.0, 667.7956
0.02700, 2.00, 470024.0, 685.5830
0.02900, 2.00, 498394.0, 705.9703
0.03100, 2.00, 527048.0, 725.9807
0.03300, 2.00, 558358.0, 747.2336
0.03500, 2.00, 588197.0, 766.9400
0.03700, 2.00, 617648.0, 785.9058
0.03900, 2.00, 650729.0, 806.6778
0.04100, 2.00, 678152.0, 823.4998
0.04300, 2.00, 706384.0, 840.4665
0.04500, 2.00, 736815.0, 858.3793
0.04700, 2.00, 767123.0, 875.8556
0.04900, 2.00, 796458.0, 892.4450
0.05100, 2.00, 826196.0, 908.9532
0.05300, 2.00, 852137.0, 923.1127
0.05500, 2.00, 879233.0, 937.6743
0.05700, 2.00, 907602.0, 952.6815
0.05900, 2.00, 934917.0, 966.9111
0.06100, 2.00, 959959.0, 979.7750
0.06300, 2.00, 986648.0, 993.3016
0.06500, 2.00, 926662.0, 8224.7387
0.06700, 2.00, 959001.0, 8367.0229
0.06900, 2.00, 979003.0, 8453.8287
0.07100, 2.00, 1015503.0, 8609.9779
0.07300, 2.00, 1030541.0, 8673.4937
0.07500, 2.00, 1054777.0, 8774.8915
0.07700, 2.00, 1080473.0, 8881.1333
0.07900, 2.00, 1096752.0, 8947.7872
0.08100, 2.00, 1098504.0, 8954.9312
0.08300, 2.00, 1131135.0, 9086.9607
0.08500, 2.00, 1153619.0, 9176.8288
0.08700, 2.00, 1180702.0, 9283.9241
0.08900, 2.00, 1208296.0, 9391.7841
0.09100, 2.00, 1219246.0, 9434.2439
0.09300, 2.00, 1237058.0, 9502.9066
0.09500, 2.00, 1262608.0, 9600.5408
0.09700, 2.00, 1279690.0, 9665.2662
0.09900, 2.00, 1291224.0, 9708.7256
0.10100, 2.00, 1326410.0, 9840.1184
0.10300, 2.00, 1349186.0, 9924.2419
0.10500, 2.00, 1338820.0, 9886.0437
0.10700, 2.00, 1381160.0, 10041.1493
0.10900, 2.00, 1397220.0, 10099.3594
0.11100, 2.00, 1392110.0, 10080.8745
0.11300, 2.00, 1413426.0, 10157.7605
0.11500, 2.00, 1434158.0, 10231.9858
0.11700, 2.00, 1454452.0, 10304.1252
0.11900, 2.00, 1467008.0, 10348.5064
0.12100, 2.00, 1473943.0, 10372.9378
0.12300, 2.00, 1505187.0, 10482.3018
0.12500, 2.00, 1532562.0, 10577.1937
0.12700, 2.00, 1539789.0, 10602.1034
0.12900, 2.00, 1552053.0, 10644.2411
0.13100, 2.00, 1578260.0, 10733.7309
0.13300, 2.00, 1588991.0, 10770.1598
0.13500, 2.00, 1582713.0, 10748.8627
0.13700, 2.00, 1617388.0, 10865.9709
0.13900, 2.00, 1637171.0, 10932.2222
0.14100, 2.00, 1665422.0, 11026.1419
0.14300, 2.00, 1636514.0, 10930.0285
0.14500, 2.00, 1674182.0, 11055.1023
0.14700, 2.00, 1716595.0, 11194.2590
0.14900, 2.00, 1721194.0, 11209.2445
0.15100, 2.00, 1724625.0, 11220.4111
0.15300, 2.00, 1741269.0, 11274.4240
0.15500, 2.00, 1757037.0, 11325.3566
0.15700, 2.00, 1774630.0, 11381.9150
0.15900, 2.00, 1780616.0, 11401.0950
0.16100, 2.00, 1793172.0, 11441.2218
0.16300, 2.00, 1804049.0, 11475.8693
0.16500, 2.00, 1817408.0, 11518.2804
0.16700, 2.00, 1835293.0, 11574.8170
0.16900, 2.00, 1853032.0, 11630.6206
0.17100, 2.00, 1880115.0, 11715.3060
0.17300, 2.00, 1880407.0, 11716.2157
0.17500, 2.00, 1881356.0, 11719.1718
0.17700, 2.00, 1927346.0, 11861.5453
0.17900, 2.00, 1902672.0, 11785.3747
0.18100, 2.00, 1957568.0, 11954.1819
0.18300, 2.00, 1923842.0, 11850.7580
0.18500, 2.00, 1942822.0, 11909.0724
0.18700, 2.00, 1983775.0, 12033.9343
0.18900, 2.00, 1988228.0, 12047.4331
0.19100, 2.00, 1987206.0, 12044.3363
0.19300, 2.00, 1987206.0, 12044.3363
0.19500, 2.00, 2008595.0, 12108.9816
0.19700, 2.00, 2032101.0, 12179.6294
0.19900, 2.00, 2039912.0, 12203.0150
0.20100, 2.00, 2036919.0, 12194.0595
0.20300, 2.00, 2053563.0, 12243.7780
0.20500, 2.00, 2072178.0, 12299.1461
0.20700, 2.00, 2067506.0, 12285.2732
0.20900, 2.00, 2082252.0, 12329.0063
0.21100, 2.00, 2095976.0, 12369.5694
0.21300, 2.00, 2102911.0, 12390.0163
0.21500, 2.00, 2119482.0, 12438.7373
0.21700, 2.00, 2110211.0, 12411.5029
0.21900, 2.00, 2111233.0, 12414.5080
0.22100, 2.00, 2123497.0, 12450.5133
0.22300, 2.00, 2124081.0, 12452.2252
0.22500, 2.00, 2127658.0, 12462.7057
0.22700, 2.00, 2143426.0, 12508.8008
0.22900, 2.00, 2127366.0, 12461.8505
0.23100, 2.00, 2138608.0, 12494.7343
0.23300, 2.00, 2153354.0, 12537.7367
0.23500, 2.00, 2162041.0, 12563.0010
0.23700, 2.00, 2153135.0, 12537.0991
0.23900, 2.00, 2134666.0, 12483.2134
0.24100, 2.00, 2146127.0, 12516.6797
0.24300, 2.00, 2154522.0, 12541.1366
0.24500, 2.00, 2141309.0, 12502.6220
0.24700, 2.00, 2140360.0, 12499.8512
0.24900, 2.00, 2150799.0, 12530.2964
0.25100, 2.00, 2144886.0, 12513.0603
0.25300, 2.00, 2135031.0, 12484.2806
0.25500, 2.00, 2125176.0, 12455.4345
0.25700, 2.00, 2119628.0, 12439.1657
0.25900, 2.00, 2129118.0, 12466.9809
0.26100, 2.00, 2107729.0, 12404.2016
0.26300, 2.00, 2081814.0, 12327.7095
0.26500, 2.00, 2054001.0, 12245.0836
0.26700, 2.00, 2041737.0, 12208.4725
0.26900, 2.00, 2031736.0, 12178.5355
0.27100, 2.00, 2005675.0, 12100.1767
0.27300, 2.00, 1940048.0, 11900.5674
0.27500, 2.00, 1878874.0, 11711.4389
0.27700, 2.00, 1827555.0, 11550.3903
0.27900, 2.00, 1745430.0, 11287.8869
0.28100, 2.00, 1637682.0, 10933.9282
0.28300, 2.00, 1529569.0, 10566.8603
0.28500, 2.00, 1390577.0, 10075.3224
0.28700, 2.00, 1261513.0, 9596.3769
0.28900, 2.00, 1145078.0, 9142.7946
0.29100, 2.00, 1028497.0, 8664.8878
0.29300, 2.00, 916807.0, 8180.8869
0.29500, 2.00, 841471.0, 7837.5623
0.29700, 2.00, 834493.0, 913.5059
0.29900, 2.00, 765219.0, 874.7680
0.30100, 2.00, 705635.0, 840.0208
0.30300, 2.00, 652996.0, 808.0817
0.30500, 2.00, 606135.0, 778.5467
0.30700, 2.00, 563601.0, 750.7336
0.30900, 2.00, 525935.0, 725.2138
0.31100, 2.00, 490937.0, 700.6690
0.31300, 2.00, 461419.0, 679.2783
0.31500, 2.00, 431909.0, 657.1978
0.31700, 2.00, 409217.0, 639.7007
0.31900, 2.00, 386376.0, 621.5915
0.32100, 2.00, 366286.0, 605.2157
0.32300, 2.00, 347454.0, 589.4523
0.32500, 2.00, 330783.0, 575.1374
0.32700, 2.00, 314848.0, 561.1132
0.32900, 2.00, 298390.0, 546.2509
0.33100, 2.00, 285415.0, 534.2425
0.33300, 2.00, 274771.0, 524.1860
0.33500, 2.00, 262095.0, 511.9521
0.33700, 2.00, 248888.0, 498.8868
0.33900, 2.00, 237544.0, 487.3849
0.34100, 2.00, 228591.0, 478.1119
0.34300, 2.00, 220920.0, 470.0213
0.34500, 2.00, 209896.0, 458.1441
0.34700, 2.00, 200350.0, 447.6047
0.34900, 2.00, 193125.0, 439.4599
0.35100, 2.00, 186823.0, 432.2303
0.35300, 2.00, 180532.0, 424.8906
0.35500, 2.00, 171411.0, 414.0181
0.35700, 2.00, 164214.0, 405.2333
0.35900, 2.00, 158228.0, 397.7788
0.36100, 2.00, 154616.0, 393.2124
0.36300, 2.00, 149907.0, 387.1783
0.36500, 2.00, 142062.0, 376.9111
0.36700, 2.00, 135705.0, 368.3816
0.36900, 2.00, 130916.0, 361.8232
0.37100, 2.00, 129465.0, 359.8125
0.37300, 2.00, 125546.0, 354.3247
0.37500, 2.00, 119092.0, 345.0971
0.37700, 2.00, 112464.0, 335.3565
0.37900, 2.00, 108364.0, 329.1869
0.38100, 2.00, 107058.0, 327.1972
0.38300, 2.00, 105713.0, 325.1354
0.38500, 2.00, 101915.0, 319.2413
0.38700, 2.00, 95814.0, 309.5384
0.38900, 2.00, 92026.0, 303.3579
0.39100, 2.00, 91842.0, 303.0545
0.39300, 2.00, 91964.0, 303.2557
0.39500, 2.00, 89502.0, 299.1688
0.39700, 2.00, 84753.0, 291.1237
0.39900, 2.00, 80166.0, 283.1360
0.40100, 2.00, 78077.0, 279.4226
0.40300, 2.00, 78692.0, 280.5209
0.40500, 2.00, 78246.0, 279.7249
0.40700, 2.00, 75133.0, 274.1040
0.40900, 2.00, 70477.0, 265.4750
0.41100, 2.00, 66785.0, 258.4279
0.41300, 2.00, 66562.0, 257.9961
0.41500, 2.00, 67719.0, 260.2287
0.41700, 2.00, 67090.0, 259.0174
0.41900, 2.00, 63589.0, 252.1686
0.42100, 2.00, 59453.0, 243.8299
0.42300, 2.00, 57179.0, 239.1213
0.42500, 2.00, 57395.0, 239.5725
0.42700, 2.00, 57888.0, 240.5993
0.42900, 2.00, 56852.0, 238.4366
0.43100, 2.00, 53523.0, 231.3504
0.43300, 2.00, 49635.0, 222.7891
0.43500, 2.00, 48316.0, 219.8090
0.43700, 2.00, 49179.0, 221.7634
0.43900, 2.00, 50027.0, 223.6672
0.44100, 2.00, 49777.0, 223.1076
0.44300, 2.00, 46776.0, 216.2776
0.44500, 2.00, 43782.0, 209.2415
0.44700, 2.00, 41617.0, 204.0025
0.44900, 2.00, 42764.0, 206.7946
0.45100, 2.00, 44221.0, 210.2879
0.45300, 2.00, 43556.0, 208.7007
0.45500, 2.00, 40788.0, 201.9604
0.45700, 2.00, 38035.0, 195.0256
0.45900, 2.00, 36184.0, 190.2209
0.46100, 2.00, 37123.0, 192.6733
0.46300, 2.00, 38826.0, 197.0431
0.46500, 2.00, 38932.0, 197.3119
0.46700, 2.00, 37304.0, 193.1424
0.46900, 2.00, 33848.0, 183.9783
0.47100, 2.00, 31749.0, 178.1825
0.47300, 2.00, 31308.0, 176.9407
0.47500, 2.00, 33298.0, 182.4774
0.47700, 2.00, 33446.0, 182.8825
0.47900, 2.00, 32867.0, 181.2926
0.48100, 2.00, 30378.0, 174.2929
0.48300, 2.00, 27908.0, 167.0569
0.48500, 2.00, 27002.0, 164.3229
0.48700, 2.00, 27992.0, 167.3081
0.48900, 2.00, 29541.0, 171.8750
0.49100, 2.00, 29344.0, 171.3009
0.49300, 2.00, 27886.0, 166.9910
0.49500, 2.00, 25418.0, 159.4302
0.49700, 2.00, 23671.0, 153.8538
0.49900, 2.00, 23748.0, 154.1039
0.50100, 2.00, 25219.0, 158.8049
0.50300, 2.00, 26340.0, 162.2960
0.50500, 2.00, 26130.0, 161.6478
0.50700, 2.00, 24158.0, 155.4284
0.50900, 2.00, 22028.0, 148.4183
0.51100, 2.00, 20617.0, 143.5862
0.51300, 2.00, 21428.0, 146.3831
0.51500, 2.00, 22885.0, 151.2779
0.51700, 2.00, 23414.0, 153.0163
0.51900, 2.00, 22438.0, 149.7932
0.52100, 2.00, 20441.0, 142.9720
0.52300, 2.00, 18610.0, 136.4185
0.52500, 2.00, 18255.0, 135.1111
0.52700, 2.00, 19180.0, 138.4919
0.52900, 2.00, 20863.0, 144.4403
0.53100, 2.00, 20995.0, 144.8965
0.53300, 2.00, 19303.0, 138.9352
0.53500, 2.00, 17511.0, 132.3291
0.53700, 2.00, 15872.0, 125.9841
0.53900, 2.00, 15568.0, 124.7718
0.54100, 2.00, 17172.0, 131.0420
0.54300, 2.00, 18367.0, 135.5249
0.54500, 2.00, 18048.0, 134.3428
0.54700, 2.00, 16751.0, 129.4257
0.54900, 2.00, 15012.0, 122.5235
0.55100, 2.00, 13991.0, 118.2836
0.55300, 2.00, 14521.0, 120.5031
0.55500, 2.00, 15976.0, 126.3962
0.55700, 2.00, 16829.0, 129.7266
0.55900, 2.00, 16338.0, 127.8202
0.56100, 2.00, 14867.0, 121.9303
0.56300, 2.00, 13445.0, 115.9526
0.56500, 2.00, 12377.0, 111.2520
0.56700, 2.00, 12944.0, 113.7717
0.56900, 2.00, 14397.0, 119.9875
0.57100, 2.00, 14875.0, 121.9631
0.57300, 2.00, 14679.0, 121.1569
0.57500, 2.00, 13024.0, 114.1227
0.57700, 2.00, 11264.0, 106.1320
0.57900, 2.00, 10765.0, 103.7545
0.58100, 2.00, 11822.0, 108.7290
0.58300, 2.00, 12915.0, 113.6442
0.58500, 2.00, 13931.0, 118.0297
0.58700, 2.00, 13127.0, 114.5731
0.58900, 2.00, 11866.0, 108.9312
0.59100, 2.00, 10275.0, 101.3657
0.59300, 2.00, 10124.0, 100.6181
0.59500, 2.00, 10835.0, 104.0913
0.59700, 2.00, 11846.0, 108.8393
0.59900, 2.00, 12437.0, 111.5213
0.60100, 2.00, 11831.0, 108.7704
0.60300, 2.00, 10348.0, 101.7251
0.60500, 2.00, 9310.0, 96.4883
0.60700, 2.00, 9103.0, 95.4096
0.60900, 2.00, 10075.0, 100.3743
0.61100, 2.00, 11177.0, 105.7213
0.61300, 2.00, 11815.0, 108.6968
0.61500, 2.00, 11136.0, 105.5272
0.61700, 2.00, 9885.0, 99.4233
0.61900, 2.00, 8571.0, 92.5797
0.62100, 2.00, 8356.0, 91.4112
0.62300, 2.00, 9104.0, 95.4149
0.62500, 2.00, 10398.0, 101.9706
0.62700, 2.00, 11146.0, 105.5746
0.62900, 2.00, 10430.0, 102.1274
0.63100, 2.00, 8910.0, 94.3928
0.63300, 2.00, 7821.0, 88.4364
0.63500, 2.00, 7661.0, 87.5271
0.63700, 2.00, 8324.0, 91.2360
0.63900, 2.00, 9648.0, 98.2242
0.64100, 2.00, 10027.0, 100.1349
0.64300, 2.00, 9684.0, 98.4073
0.64500, 2.00, 8431.0, 91.8205
0.64700, 2.00, 7347.0, 85.7146
0.64900, 2.00, 7253.0, 85.1645
0.65100, 2.00, 7809.0, 88.3685
0.65300, 2.00, 8884.0, 94.2550
0.65500, 2.00, 9485.0, 97.3910
0.65700, 2.00, 9151.0, 95.6609
0.65900, 2.00, 7788.0, 88.2496
0.66100, 2.00, 6568.0, 81.0432
0.66300, 2.00, 6269.0, 79.1770
0.66500, 2.00, 6884.0, 82.9699
0.66700, 2.00, 8174.0, 90.4102
0.66900, 2.00, 8691.0, 93.2255
0.67100, 2.00, 8454.0, 91.9456
0.67300, 2.00, 7443.0, 86.2728
0.67500, 2.00, 6155.0, 78.4538
0.67700, 2.00, 5704.0, 75.5248
0.67900, 2.00, 6258.0, 79.1075
0.68100, 2.00, 7598.0, 87.1665
0.68300, 2.00, 8318.0, 91.2031
0.68500, 2.00, 8398.0, 91.6406
0.68700, 2.00, 7111.0, 84.3267
0.68900, 2.00, 6044.0, 77.7432
0.69100, 2.00, 5464.0, 73.9189
0.69300, 2.00, 5488.0, 74.0810
0.69500, 2.00, 6583.0, 81.1357
0.69700, 2.00, 7464.0, 86.3944
0.69900, 2.00, 7435.0, 86.2264
0.70100, 2.00, 6496.0, 80.5978
0.70300, 2.00, 5579.0, 74.6927
0.70500, 2.00, 4825.0, 69.4622
0.70700, 2.00, 5079.0, 71.2671
0.70900, 2.00, 6096.0, 78.0769
0.71100, 2.00, 7044.0, 83.9285
0.71300, 2.00, 7218.0, 84.9588
0.71500, 2.00, 6437.0, 80.2309
0.71700, 2.00, 5449.0, 73.8173
0.71900, 2.00, 4665.0, 68.3008
0.72100, 2.00, 4730.0, 68.7750
0.72300, 2.00, 5389.0, 73.4098
0.72500, 2.00, 6381.0, 79.8812
0.72700, 2.00, 6967.0, 83.4686
0.72900, 2.00, 6628.0, 81.4125
0.73100, 2.00, 5504.0, 74.1889
0.73300, 2.00, 4499.0, 67.0746
0.73500, 2.00, 4382.0, 66.1967
0.73700, 2.00, 4833.0, 69.5198
0.73900, 2.00, 5920.0, 76.9415
0.74100, 2.00, 6781.0, 82.3468
0.74300, 2.00, 6428.0, 80.1748
0.74500, 2.00, 5721.0, 75.6373
0.74700, 2.00, 4785.0, 69.1737
0.74900, 2.00, 4373.0, 66.1287
0.75100, 2.00, 4500.0, 67.0820
0.75300, 2.00, 5394.0, 73.4439
0.75500, 2.00, 6256.0, 79.0949
0.75700, 2.00, 6463.0, 80.3928
0.75900, 2.00, 5714.0, 75.5910
0.76100, 2.00, 4749.0, 68.9130
0.76300, 2.00, 4113.0, 64.1327
0.76500, 2.00, 4042.0, 63.5767
0.76700, 2.00, 4758.0, 68.9783
0.76900, 2.00, 5754.0, 75.8551
0.77100, 2.00, 6218.0, 78.8543
0.77300, 2.00, 6160.0, 78.4857
0.77500, 2.00, 5140.0, 71.6938
0.77700, 2.00, 4359.0, 66.0227
0.77900, 2.00, 3865.0, 62.1691
0.78100, 2.00, 4474.0, 66.8880
0.78300, 2.00, 5422.0, 73.6342
0.78500, 2.00, 6192.0, 78.6893
0.78700, 2.00, 6219.0, 78.8606
0.78900, 2.00, 5707.0, 75.5447
0.79100, 2.00, 4603.0, 67.8454
0.79300, 2.00, 3814.0, 61.7576
0.79500, 2.00, 3769.0, 61.3922
0.79700, 2.00, 4550.0, 67.4537
0.79900, 2.00, 5347.0, 73.1232
0.80100, 2.00, 5918.0, 76.9285
0.80300, 2.00, 5245.0, 72.4224
0.80500, 2.00, 4441.0, 66.6408
0.80700, 2.00, 3546.0, 59.5483
0.80900, 2.00, 3286.0, 57.3236
0.81100, 2.00, 3828.0, 61.8708
0.81300, 2.00, 4849.0, 69.6348
0.81500, 2.00, 5496.0, 74.1350
0.81700, 2.00, 5513.0, 74.2496
0.81900, 2.00, 4968.0, 70.4840
0.82100, 2.00, 3962.0, 62.9444
0.82300, 2.00, 3452.0, 58.7537
0.82500, 2.00, 3753.0, 61.2617
0.82700, 2.00, 4644.0, 68.1469
0.82900, 2.00, 5543.0, 74.4513
0.83100, 2.00, 5526.0, 74.3371
0.83300, 2.00, 5146.0, 71.7356
0.83500, 2.00, 4105.0, 64.0703
0.83700, 2.00, 3398.0, 58.2924
0.83900, 2.00, 3336.0, 57.7581
0.84100, 2.00, 3943.0, 62.7933
0.84300, 2.00, 4906.0, 70.0428
0.84500, 2.00, 5530.0, 74.3640
0.84700, 2.00, 5500.0, 74.1620
0.84900, 2.00, 4571.0, 67.6092
0.85100, 2.00, 3650.0, 60.4152
0.85300, 2.00, 3299.0, 57.4369
0.85500, 2.00, 3657.0, 60.4731
0.85700, 2.00, 4518.0, 67.2161
0.85900, 2.00, 5248.0, 72.4431
0.86100, 2.00, 5381.0, 73.3553
0.86300, 2.00, 4856.0, 69.6850
0.86500, 2.00, 3951.0, 62.8570
0.86700, 2.00, 3186.0, 56.4447
0.86900, 2.00, 3143.0, 56.0625
0.87100, 2.00, 3888.0, 62.3538
0.87300, 2.00, 4831.0, 69.5054
0.87500, 2.00, 5296.0, 72.7736
0.87700, 2.00, 5133.0, 71.6450
0.87900, 2.00, 4298.0, 65.5591
0.88100, 2.00, 3387.0, 58.1979
0.88300, 2.00, 3073.0, 55.4346
0.88500, 2.00, 3518.0, 59.3127
0.88700, 2.00, 4318.0, 65.7115
0.88900, 2.00, 5178.0, 71.9583
0.89100, 2.00, 5357.0, 73.1915
0.89300, 2.00, 4679.0, 68.4032
0.89500, 2.00, 3749.0, 61.2291
0.89700, 2.00, 3063.0, 55.3444
0.89900, 2.00, 3249.0, 57.0000
0.90100, 2.00, 3976.0, 63.0555
0.90300, 2.00, 5025.0, 70.8872
0.90500, 2.00, 5557.0, 74.5453
0.90700, 2.00, 5304.0, 72.8286
0.90900, 2.00, 4317.0, 65.7039
0.91100, 2.00, 3427.0, 58.5406
0.91300, 2.00, 3291.0, 57.3672
0.91500, 2.00, 3691.0, 60.7536
0.91700, 2.00, 4645.0, 68.1542
0.91900, 2.00, 5380.0, 73.3485
0.92100, 2.00, 5522.0, 74.3102
0.92300, 2.00, 4879.0, 69.8498
0.92500, 2.00, 3913.0, 62.5540
0.92700, 2.00, 3280.0, 57.2713
0.92900, 2.00, 3214.0, 56.6922
0.93100, 2.00, 3971.0, 63.0159
0.93300, 2.00, 4807.0, 69.3325
0.93500, 2.00, 5278.0, 72.6498
0.93700, 2.00, 5074.0, 71.2320
0.93900, 2.00, 4342.0, 65.8939
0.94100, 2.00, 3394.0, 58.2580
0.94300, 2.00, 3096.0, 55.6417
0.94500, 2.00, 3613.0, 60.1082
0.94700, 2.00, 4478.0, 66.9179
0.94900, 2.00, 5418.0, 73.6071
0.95100, 2.00, 5708.0, 75.5513
0.95300, 2.00, 4955.0, 70.3918
0.95500, 2.00, 3822.0, 61.8223
0.95700, 2.00, 3216.0, 56.7098
0.95900, 2.00, 3211.0, 56.6657
0.96100, 2.00, 4110.0, 64.1093
0.96300, 2.00, 5155.0, 71.7983
0.96500, 2.00, 5633.0, 75.0533
0.96700, 2.00, 5356.0, 73.1847
0.96900, 2.00, 4535.0, 67.3424
0.97100, 2.00, 3661.0, 60.5062
0.97300, 2.00, 3119.0, 55.8480
0.97500, 2.00, 3730.0, 61.0737
0.97700, 2.00, 4764.0, 69.0217
0.97900, 2.00, 5671.0, 75.3060
0.98100, 2.00, 6067.0, 77.8909
0.98300, 2.00, 5594.0, 74.7930
0.98500, 2.00, 4522.0, 67.2458
0.98700, 2.00, 3547.0, 59.5567
0.98900, 2.00, 3265.0, 57.1402
0.99100, 2.00, 3792.0, 61.5792
0.99300, 2.00, 4915.0, 70.1071
0.99500, 2.00, 5789.0, 76.0855
0.99700, 2.00, 5708.0, 75.5513
0.99900, 2.00, 5030.0, 70.9225
1.00100, 2.00, 4040.0, 63.5610
1.00300, 2.00, 3312.0, 57.5500
1.00500, 2.00, 3516.0, 59.2959
1.00700, 2.00, 4544.0, 67.4092
1.00900, 2.00, 5563.0, 74.5855
1.01100, 2.00, 6320.0, 79.4984
1.01300, 2.00, 6102.0, 78.1153
1.01500, 2.00, 5090.0, 71.3442
1.01700, 2.00, 3912.0, 62.5460
1.01900, 2.00, 3567.0, 59.7244
1.02100, 2.00, 3973.0, 63.0317
1.02300, 2.00, 5047.0, 71.0422
1.02500, 2.00, 6427.0, 80.1686
1.02700, 2.00, 6746.0, 82.1340
1.02900, 2.00, 6157.0, 78.4666
1.03100, 2.00, 5100.0, 71.4143
1.03300, 2.00, 4093.0, 63.9766
1.03500, 2.00, 3952.0, 62.8649
1.03700, 2.00, 4677.0, 68.3886
1.03900, 2.00, 5989.0, 77.3886
1.04100, 2.00, 7153.0, 84.5754
1.04300, 2.00, 7284.0, 85.3464
1.04500, 2.00, 6439.0, 80.2434
1.04700, 2.00, 4749.0, 68.9130
1.04900, 2.00, 3804.0, 61.6766
1.05100, 2.00, 3680.0, 60.6630
1.05300, 2.00, 4703.0, 68.5784
1.05500, 2.00, 6080.0, 77.9744
1.05700, 2.00, 6920.0, 83.1865
1.05900, 2.00, 6979.0, 83.5404
1.06100, 2.00, 5965.0, 77.2334
1.06300, 2.00, 4634.0, 68.0735
1.06500, 2.00, 4062.0, 63.7338
1.06700, 2.00, 4541.0, 67.3869
1.06900, 2.00, 6036.0, 77.6917
1.07100, 2.00, 7532.0, 86.7871
1.07300, 2.00, 8228.0, 90.7083
1.07500, 2.00, 7828.0, 88.4760
1.07700, 2.00, 6214.0, 78.8289
1.07900, 2.00, 4842.0, 69.5845
1.08100, 2.00, 4437.0, 66.6108
1.08300, 2.00, 5151.0, 71.7705
1.08500, 2.00, 6809.0, 82.5167
1.08700, 2.00, 8000.0, 89.4427
1.08900, 2.00, 8473.0, 92.0489
1.09100, 2.00, 7564.0, 86.9713
1.09300, 2.00, 6121.0, 78.2368
1.09500, 2.00, 4793.0, 69.2315
1.09700, 2.00, 4841.0, 69.5773
1.09900, 2.00, 6370.0, 79.8123
1.10100, 2.00, 8351.0, 91.3838
1.10300, 2.00, 9509.0, 97.5141
1.10500, 2.00, 9420.0, 97.0567
1.10700, 2.00, 7906.0, 88.9157
1.10900, 2.00, 6091.0, 78.0449
1.11100, 2.00, 5189.0, 72.0347
1.11300, 2.00, 5729.0, 75.6902
1.11500, 2.00, 7229.0, 85.0235
1.11700, 2.00, 9337.0, 96.6282
1.11900, 2.00, 10065.0, 100.3245
1.12100, 2.00, 9627.0, 98.1173
1.12300, 2.00, 7766.0, 88.1249
1.12500, 2.00, 6335.0, 79.5927
1.12700, 2.00, 5832.0, 76.3675
1.12900, 2.00, 7264.0, 85.2291
1.13100, 2.00, 9632.0, 98.1428
1.13300, 2.00, 11693.0, 108.1342
1.13500, 2.00, 12164.0, 110.2905
1.13700, 2.00, 10740.0, 103.6340
1.13900, 2.00, 8424.0, 91.7824
1.14100, 2.00, 6761.0, 82.2253
1.14300, 2.00, 6877.0, 82.9277
1.14500, 2.00, 8873.0, 94.1966
1.14700, 2.00, 11432.0, 106.9205
1.14900, 2.00, 13191.0, 114.8521
1.15100, 2.00, 12844.0, 113.3314
1.15300, 2.00, 10863.0, 104.2257
1.15500, 2.00, 8762.0, 93.6056
1.15700, 2.00, 7844.0, 88.5664
1.15900, 2.00, 9410.0, 97.0052
1.16100, 2.00, 12667.0, 112.5478
1.16300, 2.00, 16350.0, 127.8671
1.16500, 2.00, 17744.0, 133.2066
1.16700, 2.00, 16698.0, 129.2207
1.16900, 2.00, 13938.0, 118.0593
1.17100, 2.00, 10689.0, 103.3876
1.17300, 2.00, 9732.0, 98.6509
1.17500, 2.00, 11349.0, 106.5317
1.17700, 2.00, 15045.0, 122.6581
1.17900, 2.00, 18589.0, 136.3415
1.18100, 2.00, 19493.0, 139.6173
1.18300, 2.00, 17754.0, 133.2441
1.18500, 2.00, 14166.0, 119.0210
1.18700, 2.00, 11882.0, 109.0046
1.18900, 2.00, 12065.0, 109.8408
1.19100, 2.00, 15513.0, 124.5512
1.19300, 2.00, 20073.0, 141.6792
1.19500, 2.00, 23588.0, 153.5839
1.19700, 2.00, 22998.0, 151.6509
1.19900, 2.00, 19848.0, 140.8829
1.20100, 2.00, 16007.0, 126.5188
1.20300, 2.00, 14279.0, 119.4948
1.20500, 2.00, 17230.0, 131.2631
1.20700, 2.00, 23725.0, 154.0292
1.20900, 2.00, 30504.0, 174.6539
1.21100, 2.00, 33642.0, 183.4176
1.21300, 2.00, 31819.0, 178.3788
1.21500, 2.00, 26004.0, 161.2576
1.21700, 2.00, 20878.0, 144.4922
1.21900, 2.00, 20391.0, 142.7971
1.22100, 2.00, 26214.0, 161.9074
1.22300, 2.00, 35988.0, 189.7050
1.22500, 2.00, 44301.0, 210.4780
1.22700, 2.00, 47266.0, 217.4075
1.22900, 2.00, 42696.0, 206.6301
1.23100, 2.00, 34861.0, 186.7110
1.23300, 2.00, 30661.0, 175.1028
1.23500, 2.00, 34627.0, 186.0833
1.23700, 2.00, 50204.0, 224.0625
1.23900, 2.00, 69754.0, 264.1098
1.24100, 2.00, 83742.0, 289.3821
1.24300, 2.00, 86671.0, 294.3994
1.24500, 2.00, 77408.0, 278.2229
1.24700, 2.00, 64097.0, 253.1739
1.24900, 2.00, 60090.0, 245.1326
1.25100, 2.00, 76631.0, 276.8230
1.25300, 2.00, 113637.0, 337.1009
1.25500, 2.00, 158607.0, 398.2549
1.25700, 2.00, 190501.0, 436.4642
1.25900, 2.00, 196201.0, 442.9458
1.26100, 2.00, 176632.0, 420.2761
1.26300, 2.00, 150904.0, 388.4636
1.26500, 2.00, 149043.0, 386.0609
1.26700, 2.00, 198718.0, 445.7780
1.26900, 2.00, 301695.0, 549.2677
1.27100, 2.00, 428837.0, 654.8565
1.27300, 2.00, 532803.0, 729.9336
1.27500, 2.00, 566182.0, 752.4507
1.27700, 2.00, 531598.0, 729.1077
1.27900, 2.00, 484007.0, 695.7061
1.28100, 2.00, 525965.0, 725.2344
1.28300, 2.00, 748821.0, 865.3444
1.28500, 2.00, 1061128.0, 8801.2695
1.28700, 2.00, 1587312.0, 10764.4682
1.28900, 2.00, 2083785.0, 12333.5439
1.29100, 2.00, 2459808.0, 13400.2233
1.29300, 2.00, 2731660.0, 14121.3023
1.29500, 2.00, 2877733.0, 14493.9473
1.29700, 2.00, 2917518.0, 14593.7937
1.29900, 2.00, 2882478.0, 14505.8917
1.30100, 2.00, 2802689.0, 14303.7162
1.30300, 2.00, 2646542.0, 13899.5527
1.30500, 2.00, 2485066.0, 13468.8462
1.30700, 2.00, 2229493.0, 12757.4680
1.30900, 2.00, 1910410.0, 11809.3154
1.31100, 2.00, 1578552.0, 10734.7238
1.31300, 2.00, 1189535.0, 9318.5865
1.31500, 2.00, 863371.0, 7938.8968
1.31700, 2.00, 639499.0, 799.6868
1.31900, 2.00, 425655.0, 652.4224
1.32100, 2.00, 291511.0, 539.9176
1.32300, 2.00, 210185.0, 458.4594
1.32500, 2.00, 158448.0, 398.0553
1.32700, 2.00, 124078.0, 352.2471
1.32900, 2.00, 101188.0, 318.1006
1.33100, 2.00, 91275.0, 302.1175
1.33300, 2.00, 91205.0, 302.0017
1.33500, 2.00, 91177.0, 301.9553
1.33700, 2.00, 87740.0, 296.2094
1.33900, 2.00, 77645.0, 278.6485
1.34100, 2.00, 62736.0, 250.4716
1.34300, 2.00, 48466.0, 220.1499
1.34500, 2.00, 39184.0, 197.9495
1.34700, 2.00, 36438.0, 190.8874
1.34900, 2.00, 38561.0, 196.3695
1.35100, 2.00, 40775.0, 201.9282
1.35300, 2.00, 39534.0, 198.8316
1.35500, 2.00, 34996.0, 187.0722
1.35700, 2.00, 28924.0, 170.0706
1.35900, 2.00, 24130.0, 155.3383
1.36100, 2.00, 22490.0, 149.9667
1.36300, 2.00, 23981.0, 154.8580
1.36500, 2.00, 26814.0, 163.7498
1.36700, 2.00, 28101.0, 167.6335
1.36900, 2.00, 26989.0, 164.2833
1.37100, 2.00, 23338.0, 152.7678
1.37300, 2.00, 18504.0, 136.0294
1.37500, 2.00, 15235.0, 123.4301
1.37700, 2.00, 13774.0, 117.3627
1.37900, 2.00, 14581.0, 120.7518
1.38100, 2.00, 15749.0, 125.4950
1.38300, 2.00, 16339.0, 127.8241
1.38500, 2.00, 15209.0, 123.3248
1.38700, 2.00, 12745.0, 112.8938
1.38900, 2.00, 10044.0, 100.2198
1.39100, 2.00, 8906.0, 94.3716
1.39300, 2.00, 8905.0, 94.3663
1.39500, 2.00, 10236.0, 101.1731
1.39700, 2.00, 11514.0, 107.3033
1.39900, 2.00, 11843.0, 108.8255
1.40100, 2.00, 10755.0, 103.7063
1.40300, 2.00, 8924.0, 94.4669
1.40500, 2.00, 7039.0, 83.8987
1.40700, 2.00, 6323.0, 79.5173
1.40900, 2.00, 6358.0, 79.7371
1.41100, 2.00, 7063.0, 84.0417
1.41300, 2.00, 7755.0, 88.0625
1.41500, 2.00, 7717.0, 87.8465
1.41700, 2.00, 6669.0, 81.6639
1.41900, 2.00, 5434.0, 73.7157
1.42100, 2.00, 4541.0, 67.3869
1.42300, 2.00, 4383.0, 66.2042
1.42500, 2.00, 4925.0, 70.1783
1.42700, 2.00, 5564.0, 74.5922
1.42900, 2.00, 5930.0, 77.0065
1.43100, 2.00, 5514.0, 74.2563
1.43300, 2.00, 4551.0, 67.4611
1.43500, 2.00, 3586.0, 59.8832
1.43700, 2.00, 3088.0, 55.5698
1.43900, 2.00, 3258.0, 57.0789
1.44100, 2.00, 3932.0, 62.7057
1.44300, 2.00, 4678.0, 68.3959
1.44500, 2.00, 4976.0, 70.5408
1.44700, 2.00, 4714.0, 68.6586
1.44900, 2.00, 3967.0, 62.9841
1.45100, 2.00, 3230.0, 56.8331
1.45300, 2.00, 2845.0, 53.3385
1.45500, 2.00, 2929.0, 54.1202
1.45700, 2.00, 3565.0, 59.7076
1.45900, 2.00, 3896.0, 62.4179
1.46100, 2.00, 4138.0, 64.3273
1.46300, 2.00, 3720.0, 60.9918
1.46500, 2.00, 3075.0, 55.4527
1.46700, 2.00, 2389.0, 48.8774
1.46900, 2.00, 2171.0, 46.5940
1.47100, 2.00, 2308.0, 48.0416
1.47300, 2.00, 2870.0, 53.5724
1.47500, 2.00, 3245.0, 56.9649
1.47700, 2.00, 3366.0, 58.0172
1.47900, 2.00, 2942.0, 54.2402
1.48100, 2.00, 2286.0, 47.8121
1.48300, 2.00, 1935.0, 43.9886
1.48500, 2.00, 1843.0, 42.9302
1.48700, 2.00, 2027.0, 45.0222
1.48900, 2.00, 2480.0, 49.7996
1.49100, 2.00, 2722.0, 52.1728
1.49300, 2.00, 2766.0, 52.5928
1.49500, 2.00, 2495.0, 49.9500
1.49700, 2.00, 1990.0, 44.6094
1.49900, 2.00, 1596.0, 39.9500
1.50100, 2.00, 1508.0, 38.8330
1.50300, 2.00, 1694.0, 41.1582
1.50500, 2.00, 2018.0, 44.9222
1.50700, 2.00, 2287.0, 47.8226
1.50900, 2.00, 2305.0, 48.0104
1.51100, 2.00, 2070.0, 45.4973
1.51300, 2.00, 1664.0, 40.7922
1.51500, 2.00, 1323.0, 36.3731
1.51700, 2.00, 1232.0, 35.0999
1.51900, 2.00, 1503.0, 38.7685
1.52100, 2.00, 1712.0, 41.3763
1.52300, 2.00, 1870.0, 43.2435
1.52500, 2.00, 1885.0, 43.4166
1.52700, 2.00, 1553.0, 39.4081
1.52900, 2.00, 1262.0, 35.5246
1.53100, 2.00, 1069.0, 32.6956
1.53300, 2.00, 1070.0, 32.7109
1.53500, 2.00, 1234.0, 35.1283
1.53700, 2.00, 1514.0, 38.9102
1.53900, 2.00, 1533.0, 39.1535
1.54100, 2.00, 1539.0, 39.2301
1.54300, 2.00, 1329.0, 36.4555
1.54500, 2.00, 1084.0, 32.9242
1.54700, 2.00, 977.0, 31.2570
1.54900, 2.00, 1018.0, 31.9061
1.55100, 2.00, 1211.0, 34.7994
1.55300, 2.00, 1418.0, 37.6563
1.55500, 2.00, 1474.0, 38.3927
1.55700, 2.00, 1460.0, 38.2099
1.55900, 2.00, 1238.0, 35.1852
1.56100, 2.00, 945.0, 30.7409
1.56300, 2.00, 776.0, 27.8568
1.56500, 2.00, 749.0, 27.3679
1.56700, 2.00, 874.0, 29.5635
1.56900, 2.00, 1084.0, 32.9242
1.57100, 2.00, 1189.0, 34.4819
1.57300, 2.00, 1086.0, 32.9545
1.57500, 2.00, 858.0, 29.2916
1.57700, 2.00, 685.0, 26.1725
1.57900, 2.00, 649.0, 25.4755
1.58100, 2.00, 738.0, 27.1662
1.58300, 2.00, 897.0, 29.9500
1.58500, 2.00, 1031.0, 32.1092
1.58700, 2.00, 1163.0, 34.1028
1.58900, 2.00, 903.0, 30.0500
1.59100, 2.00, 819.0, 28.6182
1.59300, 2.00, 659.0, 25.6710
1.59500, 2.00, 583.0, 24.1454
1.59700, 2.00, 662.0, 25.7294
1.59900, 2.00, 833.0, 28.8617
1.60100, 2.00, 889.0, 29.8161
1.60300, 2.00, 933.0, 30.5450
1.60500, 2.00, 830.0, 28.8097
1.60700, 2.00, 656.0, 25.6125
1.60900, 2.00, 584.0, 24.1661
1.61100, 2.00, 553.0, 23.5160
1.61300, 2.00, 633.0, 25.1595
1.61500, 2.00, 721.0, 26.8514
1.61700, 2.00, 835.0, 28.8964
1.61900, 2.00, 805.0, 28.3725
1.62100, 2.00, 672.0, 25.9230
1.62300, 2.00, 495.0, 22.2486
1.62500, 2.00, 424.0, 20.5913
1.62700, 2.00, 439.0, 20.9523
1.62900, 2.00, 516.0, 22.7156
1.63100, 2.00, 585.0, 24.1868
1.63300, 2.00, 731.0, 27.0370
1.63500, 2.00, 686.0, 26.1916
1.63700, 2.00, 567.0, 23.8118
1.63900, 2.00, 438.0, 20.9284
1.64100, 2.00, 392.0, 19.7990
1.64300, 2.00, 386.0, 19.6469
1.64500, 2.00, 556.0, 23.5797
1.64700, 2.00, 588.0, 24.2487
1.64900, 2.00, 680.0, 26.0768
1.65100, 2.00, 631.0, 25.1197
1.65300, 2.00, 501.0, 22.3830
1.65500, 2.00, 393.0, 19.8242
1.65700, 2.00, 347.0, 18.6279
1.65900, 2.00, 385.0, 19.6214
1.66100, 2.00, 546.0, 23.3666
1.66300, 2.00, 616.0, 24.8193
1.66500, 2.00, 622.0, 24.9399
1.66700, 2.00, 555.0, 23.5584
1.66900, 2.00, 478.0, 21.8632
1.67100, 2.00, 389.0, 19.7231
1.67300, 2.00, 331.0, 18.1934
1.67500, 2.00, 393.0, 19.8242
1.67700, 2.00, 445.0, 21.0950
1.67900, 2.00, 503.0, 22.4277
1.68100, 2.00, 543.0, 23.3024
1.68300, 2.00, 434.0, 20.8327
1.68500, 2.00, 351.0, 18.7350
1.68700, 2.00, 267.0, 16.3401
1.68900, 2.00, 275.0, 16.5831
1.69100, 2.00, 363.0, 19.0526
1.69300, 2.00, 370.0, 19.2354
1.69500, 2.00, 439.0, 20.9523
1.69700, 2.00, 412.0, 20.2978
1.69900, 2.00, 360.0, 18.9737
1.70100, 2.00, 286.0, 16.9115
1.70300, 2.00, 255.0, 15.9687
1.70500, 2.00, 253.0, 15.9060
1.70700, 2.00, 335.0, 18.3030
1.70900, 2.00, 385.0, 19.6214
1.71100, 2.00, 426.0, 20.6398
1.71300, 2.00, 394.0, 19.8494
1.71500, 2.00, 351.0, 18.7350
1.71700, 2.00, 280.0, 16.7332
1.71900, 2.00, 234.0, 15.2971
1.72100, 2.00, 290.0, 17.0294
1.72300, 2.00, 287.0, 16.9411
1.72500, 2.00, 364.0, 19.0788
1.72700, 2.00, 440.0, 20.9762
1.72900, 2.00, 384.0, 19.5959
1.73100, 2.00, 317.0, 17.8045
1.73300, 2.00, 267.0, 16.3401
1.73500, 2.00, 212.0, 14.5602
1.73700, 2.00, 236.0, 15.3623
1.73900, 2.00, 315.0, 17.7482
1.74100, 2.00, 327.0, 18.0831
1.74300, 2.00, 376.0, 19.3907
1.74500, 2.00, 352.0, 18.7617
1.74700, 2.00, 314.0, 17.7200
1.74900, 2.00, 248.0, 15.7480
1.75100, 2.00, 197.0, 14.0357
1.75300, 2.00, 211.0, 14.5258
1.75500, 2.00, 227.0, 15.0665
1.75700, 2.00, 281.0, 16.7631
1.75900, 2.00, 294.0, 17.1464
1.76100, 2.00, 258.0, 16.0624
1.76300, 2.00, 241.0, 15.5242
1.76500, 2.00, 190.0, 13.7840
1.76700, 2.00, 177.0, 13.3041
1.76900, 2.00, 217.0, 14.7309
1.77100, 2.00, 272.0, 16.4924
1.77300, 2.00, 307.0, 17.5214
1.77500, 2.00, 322.0, 17.9444
1.77700, 2.00, 285.0, 16.8819
1.77900, 2.00, 248.0, 15.7480
1.78100, 2.00, 189.0, 13.7477
1.78300, 2.00, 164.0, 12.8062
1.78500, 2.00, 197.0, 14.0357
1.78700, 2.00, 211.0, 14.5258
1.78900, 2.00, 235.0, 15.3297
1.79100, 2.00, 281.0, 16.7631
1.79300, 2.00, 223.0, 14.9332
1.79500, 2.00, 163.0, 12.7671
1.79700, 2.00, 132.0, 11.4891
1.79900, 2.00, 138.0, 11.7473
1.80100, 2.00, 188.0, 13.7113
1.80300, 2.00, 188.0, 13.7113
1.80500, 2.00, 214.0, 14.6287
1.80700, 2.00, 232.0, 15.2315
1.80900, 2.00, 211.0, 14.5258
1.81100, 2.00, 146.0, 12.0830
1.81300, 2.00, 132.0, 11.4891
1.81500, 2.00, 153.0, 12.3693
1.81700, 2.00, 160.0, 12.6491
1.81900, 2.00, 184.0, 13.5647
1.82100, 2.00, 177.0, 13.3041
1.82300, 2.00, 200.0, 14.1421
1.82500, 2.00, 185.0, 13.6015
1.82700, 2.00, 135.0, 11.6190
1.82900, 2.00, 109.0, 10.4403
1.83100, 2.00, 109.0, 10.4403
1.83300, 2.00, 151.0, 12.2882
1.83500, 2.00, 184.0, 13.5647
1.83700, 2.00, 201.0, 14.1774
1.83900, 2.00, 168.0, 12.9615
1.84100, 2.00, 155.0, 12.4499
1.84300, 2.00, 120.0, 10.9545
1.84500, 2.00, 112.0, 10.5830
1.84700, 2.00, 112.0, 10.5830
1.84900, 2.00, 161.0, 12.6886
1.85100, 2.00, 169.0, 13.0000
1.85300, 2.00, 195.0, 13.9642
1.85500, 2.00, 162.0, 12.7279
1.85700, 2.00, 168.0, 12.9615
1.85900, 2.00, 105.0, 10.2470
1.86100, 2.00, 111.0, 10.5357
1.86300, 2.00, 107.0, 10.3441
1.86500, 2.00, 147.0, 12.1244
1.86700, 2.00, 167.0, 12.9228
1.86900, 2.00, 137.0, 11.7047
1.87100, 2.00, 146.0, 12.0830
1.87300, 2.00, 130.0, 11.4018
1.87500, 2.00, 109.0, 10.4403
1.87700, 2.00, 95.0, 9.7468
1.87900, 2.00, 125.0, 11.1803
1.88100, 2.00, 126.0, 11.2250
1.88300, 2.00, 152.0, 12.3288
1.88500, 2.00, 179.0, 13.3791
1.88700, 2.00, 138.0, 11.7473
1.88900, 2.00, 109.0, 10.4403
1.89100, 2.00, 112.0, 10.5830
1.89300, 2.00, 93.0, 9.6437
1.89500, 2.00, 90.0, 9.4868
1.89700, 2.00, 122.0, 11.0454
1.89900, 2.00, 150.0, 12.2474
1.90100, 2.00, 132.0, 11.4891
1.90300, 2.00, 129.0, 11.3578
1.90500, 2.00, 108.0, 10.3923
1.90700, 2.00, 78.0, 8.8318
1.90900, 2.00, 79.0, 8.8882
1.91100, 2.00, 84.0, 9.1652
1.91300, 2.00, 108.0, 10.3923
1.91500, 2.00, 120.0, 10.9545
1.91700, 2.00, 130.0, 11.4018
1.91900, 2.00, 120.0, 10.9545
1.92100, 2.00, 84.0, 9.1652
1.92300, 2.00, 73.0, 8.5440
1.92500, 2.00, 75.0, 8.6603
1.92700, 2.00, 88.0, 9.3808
1.92900, 2.00, 95.0, 9.7468
1.93100, 2.00, 111.0, 10.5357
1.93300, 2.00, 115.0, 10.7238
1.93500, 2.00, 108.0, 10.3923
1.93700, 2.00, 82.0, 9.0554
1.93900, 2.00, 65.0, 8.0623
1.94100, 2.00, 83.0, 9.1104
1.94300, 2.00, 91.0, 9.5394
1.94500, 2.00, 111.0, 10.5357
1.94700, 2.00, 108.0, 10.3923
1.94900, 2.00, 119.0, 10.9087
1.95100, 2.00, 94.0, 9.6954
1.95300, 2.00, 91.0, 9.5394
1.95500, 2.00, 62.0, 7.8740
1.95700, 2.00, 86.0, 9.2736
1.95900, 2.00, 66.0, 8.1240
1.96100, 2.00, 89.0, 9.4340
1.96300, 2.00, 106.0, 10.2956
1.96500, 2.00, 116.0, 10.7703
1.96700, 2.00, 112.0, 10.5830
1.96900, 2.00, 85.0, 9.2195
1.97100, 2.00, 68.0, 8.2462
1.97300, 2.00, 71.0, 8.4261
1.97500, 2.00, 88.0, 9.3808
1.97700, 2.00, 94.0, 9.6954
1.97900, 2.00, 95.0, 9.7468
1.98100, 2.00, 83.0, 9.1104
1.98300, 2.00, 78.0, 8.8318
1.98500, 2.00, 66.0, 8.1240
1.98700, 2.00, 62.0, 7.8740
1.98900, 2.00, 73.0, 8.5440
1.99100, 2.00, 96.0, 9.7980
1.99300, 2.00, 95.0, 9.7468
1.99500, 2.00, 88.0, 9.3808
1.99700, 2.00, 90.0, 9.4868
1.99900, 2.00, 67.0, 8.1854
2.00100, 2.00, 64.0, 8.0000
2.00300, 2.00, 68.0, 8.2462
2.00500, 2.00, 70.0, 8.3666
2.00700, 2.00, 89.0, 9.4340
2.00900, 2.00, 83.0, 9.1104
2.01100, 2.00, 64.0, 8.0000
2.01300, 2.00, 68.0, 8.2462
2.01500, 2.00, 68.0, 8.2462
2.01700, 2.00, 69.0, 8.3066
2.01900, 2.00, 58.0, 7.6158
2.02100, 2.00, 82.0, 9.0554
2.02300, 2.00, 75.0, 8.6603
2.02500, 2.00, 83.0, 9.1104
2.02700, 2.00, 76.0, 8.7178
2.02900, 2.00, 72.0, 8.4853
2.03100, 2.00, 73.0, 8.5440
2.03300, 2.00, 56.0, 7.4833
2.03500, 2.00, 65.0, 8.0623
2.03700, 2.00, 69.0, 8.3066
2.03900, 2.00, 68.0, 8.2462
2.04100, 2.00, 75.0, 8.6603
2.04300, 2.00, 87.0, 9.3274
2.04500, 2.00, 76.0, 8.7178
2.04700, 2.00, 66.0, 8.1240
2.04900, 2.00, 51.0, 7.1414
2.05100, 2.00, 68.0, 8.2462
2.05300, 2.00, 63.0, 7.9373
2.05500, 2.00, 62.0, 7.8740
2.05700, 2.00, 67.0, 8.1854
2.05900, 2.00, 55.0, 7.4162
2.06100, 2.00, 60.0, 7.7460
2.06300, 2.00, 52.0, 7.2111
2.06500, 2.00, 62.0, 7.8740
2.06700, 2.00, 70.0, 8.3666
2.06900, 2.00, 80.0, 8.9443
2.07100, 2.00, 85.0, 9.2195
2.07300, 2.00, 69.0, 8.3066
2.07500, 2.00, 74.0, 8.6023
2.07700, 2.00, 83.0, 9.1104
2.07900, 2.00, 79.0, 8.8882
2.08100, 2.00, 70.0, 8.3666
2.08300, 2.00, 69.0, 8.3066
2.08500, 2.00, 64.0, 8.0000
2.08700, 2.00, 68.0, 8.2462
2.08900, 2.00, 57.0, 7.5498
2.09100, 2.00, 64.0, 8.0000
2.09300, 2.00, 56.0, 7.4833
2.09500, 2.00, 59.0, 7.6811
2.09700, 2.00, 59.0, 7.6811
2.09900, 2.00, 64.0, 8.0000
2.10100, 2.00, 69.0, 8.3066
2.10300, 2.00, 84.0, 9.1652
2.10500, 2.00, 71.0, 8.4261
2.10700, 2.00, 84.0, 9.1652
2.10900, 2.00, 63.0, 7.9373
2.11100, 2.00, 73.0, 8.5440
2.11300, 2.00, 60.0, 7.7460
2.11500, 2.00, 58.0, 7.6158
2.11700, 2.00, 59.0, 7.6811
2.11900, 2.00, 77.0, 8.7750
2.12100, 2.00, 63.0, 7.9373
2.12300, 2.00, 66.0, 8.1240
2.12500, 2.00, 59.0, 7.6811
2.12700, 2.00, 60.0, 7.7460
2.12900, 2.00, 69.0, 8.3066
2.13100, 2.00, 61.0, 7.8102
2.13300, 2.00, 77.0, 8.7750
2.13500, 2.00, 59.0, 7.6811
2.13700, 2.00, 67.0, 8.1854
2.13900, 2.00, 77.0, 8.7750
2.14100, 2.00, 71.0, 8.4261
2.14300, 2.00, 58.0, 7.6158
2.14500, 2.00, 73.0, 8.5440
2.14700, 2.00, 90.0, 9.4868
2.14900, 2.00, 51.0, 7.1414
2.15100, 2.00, 68.0, 8.2462
2.15300, 2.00, 60.0, 7.7460
2.15500, 2.00, 63.0, 7.9373
2.15700, 2.00, 61.0, 7.8102
2.15900, 2.00, 68.0, 8.2462
2.16100, 2.00, 70.0, 8.3666
2.16300, 2.00, 76.0, 8.7178
2.16500, 2.00, 56.0, 7.4833
2.16700, 2.00, 57.0, 7.5498
2.16900, 2.00, 55.0, 7.4162
2.17100, 2.00, 70.0, 8.3666
2.17300, 2.00, 55.0, 7.4162
2.17500, 2.00, 69.0, 8.3066
2.17700, 2.00, 81.0, 9.0000
2.17900, 2.00, 79.0, 8.8882
2.18100, 2.00, 49.0, 7.0000
2.18300, 2.00, 70.0, 8.3666
2.18500, 2.00, 73.0, 8.5440
2.18700, 2.00, 71.0, 8.4261
2.18900, 2.00, 88.0, 9.3808
2.19100, 2.00, 88.0, 9.3808
2.19300, 2.00, 76.0, 8.7178
2.19500, 2.00, 66.0, 8.1240
2.19700, 2.00, 61.0, 7.8102
2.19900, 2.00, 72.0, 8.4853
2.20100, 2.00, 61.0, 7.8102
2.20300, 2.00, 84.0, 9.1652
2.20500, 2.00, 74.0, 8.6023
2.20700, 2.00, 86.0, 9.2736
2.20900, 2.00, 81.0, 9.0000
2.21100, 2.00, 75.0, 8.6603
2.21300, 2.00, 69.0, 8.3066
2.21500, 2.00, 78.0, 8.8318
2.21700, 2.00, 66.0, 8.1240
2.21900, 2.00, 88.0, 9.3808
2.22100, 2.00, 103.0, 10.1489
2.22300, 2.00, 104.0, 10.1980
2.22500, 2.00, 95.0, 9.7468
2.22700, 2.00, 110.0, 10.4881
2.22900, 2.00, 72.0, 8.4853
2.23100, 2.00, 74.0, 8.6023
2.23300, 2.00, 58.0, 7.6158
2.23500, 2.00, 70.0, 8.3666
2.23700, 2.00, 87.0, 9.3274
2.23900, 2.00, 66.0, 8.1240
2.24100, 2.00, 77.0, 8.7750
2.24300, 2.00, 81.0, 9.0000
2.24500, 2.00, 75.0, 8.6603
2.24700, 2.00, 68.0, 8.2462
2.24900, 2.00, 74.0, 8.6023
2.25100, 2.00, 91.0, 9.5394
2.25300, 2.00, 107.0, 10.3441
2.25500, 2.00, 110.0, 10.4881
2.25700, 2.00, 93.0, 9.6437
2.25900, 2.00, 104.0, 10.1980
2.26100, 2.00, 110.0, 10.4881
2.26300, 2.00, 88.0, 9.3808
2.26500, 2.00, 100.0, 10.0000
2.26700, 2.00, 112.0, 10.5830
2.26900, 2.00, 128.0, 11.3137
2.27100, 2.00, 125.0, 11.1803
2.27300, 2.00, 105.0, 10.2470
2.27500, 2.00, 114.0, 10.6771
2.27700, 2.00, 79.0, 8.8882
2.27900, 2.00, 81.0, 9.0000
2.28100, 2.00, 116.0, 10.7703
2.28300, 2.00, 112.0, 10.5830
2.28500, 2.00, 126.0, 11.2250
2.28700, 2.00, 173.0, 13.1529
2.28900, 2.00, 169.0, 13.0000
2.29100, 2.00, 139.0, 11.7898
2.29300, 2.00, 143.0, 11.9583
2.29500, 2.00, 125.0, 11.1803
2.29700, 2.00, 82.0, 9.0554
2.29900, 2.00, 105.0, 10.2470
2.30100, 2.00, 100.0, 10.0000
2.30300, 2.00, 129.0, 11.3578
2.30500, 2.00, 134.0, 11.5758
2.30700, 2.00, 103.0, 10.1489
2.30900, 2.00, 102.0, 10.0995
2.31100, 2.00, 89.0, 9.4340
2.31300, 2.00, 113.0, 10.6301
2.31500, 2.00, 134.0, 11.5758
2.31700, 2.00, 150.0, 12.2474
2.31900, 2.00, 170.0, 13.0384
2.32100, 2.00, 169.0, 13.0000
2.32300, 2.00, 142.0, 11.9164
2.32500, 2.00, 105.0, 10.2470
2.32700, 2.00, 117.0, 10.8167
2.32900, 2.00, 109.0, 10.4403
2.33100, 2.00, 149.0, 12.2066
2.33300, 2.00, 161.0, 12.6886
2.33500, 2.00, 167.0, 12.9228
2.33700, 2.00, 168.0, 12.9615
2.33900, 2.00, 148.0, 12.1655
2.34100, 2.00, 116.0, 10.7703
2.34300, 2.00, 115.0, 10.7238
2.34500, 2.00, 159.0, 12.6095
2.34700, 2.00, 163.0, 12.7671
2.34900, 2.00, 252.0, 15.8745
2.35100, 2.00, 193.0, 13.8924
2.35300, 2.00, 201.0, 14.1774
2.35500, 2.00, 176.0, 13.2665
2.35700, 2.00, 153.0, 12.3693
2.35900, 2.00, 157.0, 12.5300
2.36100, 2.00, 171.0, 13.0767
2.36300, 2.00, 191.0, 13.8203
2.36500, 2.00, 225.0, 15.0000
2.36700, 2.00, 250.0, 15.8114
2.36900, 2.00, 228.0, 15.0997
2.37100, 2.00, 243.0, 15.5885
2.37300, 2.00, 178.0, 13.3417
2.37500, 2.00, 206.0, 14.3527
2.37700, 2.00, 248.0, 15.7480
2.37900, 2.00, 265.0, 16.2788
2.38100, 2.00, 338.0, 18.3848
2.38300, 2.00, 342.0, 18.4932
2.38500, 2.00, 315.0, 17.7482
2.38700, 2.00, 298.0, 17.2627
2.38900, 2.00, 270.0, 16.4317
2.39100, 2.00, 290.0, 17.0294
2.39300, 2.00, 267.0, 16.3401
2.39500, 2.00, 311.0, 17.6352
2.39700, 2.00, 412.0, 20.2978
2.39900, 2.00, 344.0, 18.5472
2.40100, 2.00, 310.0, 17.6068
2.40300, 2.00, 316.0, 17.7764
2.40500, 2.00, 305.0, 17.4642
2.40700, 2.00, 325.0, 18.0278
2.40900, 2.00, 358.0, 18.9209
2.41100, 2.00, 473.0, 21.7486
2.41300, 2.00, 547.0, 23.3880
2.41500, 2.00, 536.0, 23.1517
2.41700, 2.00, 524.0, 22.8910
2.41900, 2.00, 407.0, 20.1742
2.42100, 2.00, 353.0, 18.7883
2.42300, 2.00, 381.0, 19.5192
2.42500, 2.00, 406.0, 20.1494
2.42700, 2.00, 510.0, 22.5832
2.42900, 2.00, 503.0, 22.4277
2.43100, 2.00, 561.0, 23.6854
2.43300, 2.00, 565.0, 23.7697
2.43500, 2.00, 475.0, 21.7945
2.43700, 2.00, 467.0, 21.6102
2.43900, 2.00, 496.0, 22.2711
2.44100, 2.00, 595.0, 24.3926
2.44300, 2.00, 680.0, 26.0768
2.44500, 2.00, 762.0, 27.6043
2.44700, 2.00, 855.0, 29.2404
2.44900, 2.00, 787.0, 28.0535
2.45100, 2.00, 670.0, 25.8844
2.45300, 2.00, 644.0, 25.3772
2.45500, 2.00, 759.0, 27.5500
2.45700, 2.00, 940.0, 30.6594
2.45900, 2.00, 1114.0, 33.3766
2.46100, 2.00, 1268.0, 35.6090
2.46300, 2.00, 1294.0, 35.9722
2.46500, 2.00, 1150.0, 33.9116
2.46700, 2.00, 1093.0, 33.0606
2.46900, 2.00, 1044.0, 32.3110
2.47100, 2.00, 1128.0, 33.5857
2.47300, 2.00, 1420.0, 37.6829
2.47500, 2.00, 1736.0, 41.6653
2.47700, 2.00, 1955.0, 44.2154
2.47900, 2.00, 2059.0, 45.3762
2.48100, 2.00, 2005.0, 44.7772
2.48300, 2.00, 1969.0, 44.3734
2.48500, 2.00, 1906.0, 43.6578
2.48700, 2.00, 2452.0, 49.5177
2.48900, 2.00, 2797.0, 52.8867
2.49100, 2.00, 3540.0, 59.4979
2.49300, 2.00, 4027.0, 63.4586
2.49500, 2.00, 4186.0, 64.6993
2.49700, 2.00, 4027.0, 63.4586
2.49900, 2.00, 3895.0, 62.4099
2.50100, 2.00, 3925.0, 62.6498
2.50300, 2.00, 4493.0, 67.0298
2.50500, 2.00, 5616.0, 74.9400
2.50700, 2.00, 7468.0, 86.4176
2.50900, 2.00, 8903.0, 94.3557
2.51100, 2.00, 10181.0, 100.9009
2.51300, 2.00, 10608.0, 102.9951
2.51500, 2.00, 10073.0, 100.3643
2.51700, 2.00, 9795.0, 98.9697
2.51900, 2.00, 10256.0, 101.2719
2.52100, 2.00, 11726.0, 108.2867
2.52300, 2.00, 15353.0, 123.9072
2.52500, 2.00, 19771.0, 140.6094
2.52700, 2.00, 24057.0, 155.1032
2.52900, 2.00, 26492.0, 162.7636
2.53100, 2.00, 26943.0, 164.1432
2.53300, 2.00, 25211.0, 158.7797
2.53500, 2.00, 23097.0, 151.9770
2.53700, 2.00, 23600.0, 153.6229
2.53900, 2.00, 30111.0, 173.5252
2.54100, 2.00, 44724.0, 211.4805
2.54300, 2.00, 67988.0, 260.7451
2.54500, 2.00, 97861.0, 312.8274
2.54700, 2.00, 130898.0, 361.7983
2.54900, 2.00, 161921.0, 402.3941
2.55100, 2.00, 187092.0, 432.5413
2.55300, 2.00, 200633.0, 447.9208
2.55500, 2.00, 201847.0, 449.2739
2.55700, 2.00, 192777.0, 439.0638
2.55900, 2.00, 171034.0, 413.5626
2.56100, 2.00, 143725.0, 379.1108
2.56300, 2.00, 114401.0, 338.2322
2.56500, 2.00, 87037.0, 295.0203
2.56700, 2.00, 63056.0, 251.1095
2.56900, 2.00, 42963.0, 207.2752
2.57100, 2.00, 28299.0, 168.2231
2.57300, 2.00, 17600.0, 132.6650
2.57500, 2.00, 10446.0, 102.2057
2.57700, 2.00, 6233.0, 78.9494
2.57900, 2.00, 3829.0, 61.8789
2.58100, 2.00, 2708.0, 52.0384
2.58300, 2.00, 2510.0, 50.0999
2.58500, 2.00, 2575.0, 50.7445
2.58700, 2.00, 2670.0, 51.6720
2.58900, 2.00, 2562.0, 50.6162
2.59100, 2.00, 2270.0, 47.6445
2.59300, 2.00, 2103.0, 45.8585
2.59500, 2.00, 1668.0, 40.8412
2.59700, 2.00, 1270.0, 35.6371
2.59900, 2.00, 1120.0, 33.4664
2.60100, 2.00, 1059.0, 32.5423
2.60300, 2.00, 1010.0, 31.7805
2.60500, 2.00, 926.0, 30.4302
2.60700, 2.00, 861.0, 29.3428
2.60900, 2.00, 808.0, 28.4253
2.61100, 2.00, 715.0, 26.7395
2.61300, 2.00, 659.0, 25.6710
2.61500, 2.00, 751.0, 27.4044
2.61700, 2.00, 802.0, 28.3196
2.61900, 2.00, 792.0, 28.1425
2.62100, 2.00, 805.0, 28.3725
2.62300, 2.00, 773.0, 27.8029
2.62500, 2.00, 618.0, 24.8596
2.62700, 2.00, 550.0, 23.4521
2.62900, 2.00, 489.0, 22.1133
2.63100, 2.00, 502.0, 22.4054
2.63300, 2.00, 469.0, 21.6564
2.63500, 2.00, 491.0, 22.1585
2.63700, 2.00, 432.0, 20.7846
2.63900, 2.00, 386.0, 19.6469
2.64100, 2.00, 328.0, 18.1108
2.64300, 2.00, 299.0, 17.2916
2.64500, 2.00, 284.0, 16.8523
2.64700, 2.00, 265.0, 16.2788
2.64900, 2.00, 288.0, 16.9706
2.65100, 2.00, 302.0, 17.3781
2.65300, 2.00, 297.0, 17.2337
2.65500, 2.00, 251.0, 15.8430
2.65700, 2.00, 238.0, 15.4272
2.65900, 2.00, 219.0, 14.7986
2.66100, 2.00, 219.0, 14.7986
2.66300, 2.00, 190.0, 13.7840
2.66500, 2.00, 193.0, 13.8924
2.66700, 2.00, 219.0, 14.7986
2.66900, 2.00, 173.0, 13.1529
2.67100, 2.00, 152.0, 12.3288
2.67300, 2.00, 137.0, 11.7047
2.67500, 2.00, 139.0, 11.7898
2.67700, 2.00, 138.0, 11.7473
2.67900, 2.00, 144.0, 12.0000
2.68100, 2.00, 148.0, 12.1655
2.68300, 2.00, 160.0, 12.6491
2.68500, 2.00, 136.0, 11.6619
2.68700, 2.00, 116.0, 10.7703
2.68900, 2.00, 121.0, 11.0000
2.69100, 2.00, 106.0, 10.2956
2.69300, 2.00, 96.0, 9.7980
2.69500, 2.00, 129.0, 11.3578
2.69700, 2.00, 124.0, 11.1355
2.69900, 2.00, 123.0, 11.0905
2.70100, 2.00, 113.0, 10.6301
2.70300, 2.00, 106.0, 10.2956
2.70500, 2.00, 95.0, 9.7468
2.70700, 2.00, 104.0, 10.1980
2.70900, 2.00, 114.0, 10.6771
2.71100, 2.00, 108.0, 10.3923
2.71300, 2.00, 92.0, 9.5917
2.71500, 2.00, 120.0, 10.9545
2.71700, 2.00, 103.0, 10.1489
2.71900, 2.00, 84.0, 9.1652
2.72100, 2.00, 82.0, 9.0554
2.72300, 2.00, 76.0, 8.7178
2.72500, 2.00, 60.0, 7.7460
2.72700, 2.00, 73.0, 8.5440
2.72900, 2.00, 72.0, 8.4853
2.73100, 2.00, 88.0, 9.3808
2.73300, 2.00, 69.0, 8.3066
2.73500, 2.00, 65.0, 8.0623
2.73700, 2.00, 70.0, 8.3666
2.73900, 2.00, 56.0, 7.4833
2.74100, 2.00, 84.0, 9.1652
2.74300, 2.00, 71.0, 8.4261
2.74500, 2.00, 65.0, 8.0623
2.74700, 2.00, 77.0, 8.7750
2.74900, 2.00, 73.0, 8.5440
2.75100, 2.00, 56.0, 7.4833
2.75300, 2.00, 52.0, 7.2111
2.75500, 2.00, 53.0, 7.2801
2.75700, 2.00, 61.0, 7.8102
2.75900, 2.00, 55.0, 7.4162
2.76100, 2.00, 53.0, 7.2801
2.76300, 2.00, 58.0, 7.6158
2.76500, 2.00, 56.0, 7.4833
2.76700, 2.00, 53.0, 7.2801
2.76900, 2.00, 42.0, 6.4807
2.77100, 2.00, 34.0, 5.8310
2.77300, 2.00, 48.0, 6.9282
2.77500, 2.00, 52.0, 7.2111
2.77700, 2.00, 56.0, 7.4833
2.77900, 2.00, 56.0, 7.4833
2.78100, 2.00, 33.0, 5.7446
2.78300, 2.00, 20.0, 4.4721
2.78500, 2.00, 43.0, 6.5574
2.78700, 2.00, 35.0, 5.9161
2.78900, 2.00, 32.0, 5.6569
2.79100, 2.00, 35.0, 5.9161
2.79300, 2.00, 47.0, 6.8557
2.79500, 2.00, 41.0, 6.4031
2.79700, 2.00, 40.0, 6.3246
2.79900, 2.00, 34.0, 5.8310
2.80100, 2.00, 34.0, 5.8310
2.80300, 2.00, 38.0, 6.1644
2.80500, 2.00, 49.0, 7.0000
2.80700, 2.00, 52.0, 7.2111
2.80900, 2.00, 64.0, 8.0000
2.81100, 2.00, 45.0, 6.7082
2.81300, 2.00, 40.0, 6.3246
2.81500, 2.00, 36.0, 6.0000
2.81700, 2.00, 38.0, 6.1644
2.81900, 2.00, 33.0, 5.7446
2.82100, 2.00, 25.0, 5.0000
2.82300, 2.00, 29.0, 5.3852
2.82500, 2.00, 33.0, 5.7446
2.82700, 2.00, 26.0, 5.0990
2.82900, 2.00, 27.0, 5.1962
2.83100, 2.00, 21.0, 4.5826
2.83300, 2.00, 24.0, 4.8990
2.83500, 2.00, 24.0, 4.8990
2.83700, 2.00, 27.0, 5.1962
2.83900, 2.00, 30.0, 5.4772
2.84100, 2.00, 37.0, 6.0828
2.84300, 2.00, 29.0, 5.3852
2.84500, 2.00, 29.0, 5.3852
2.84700, 2.00, 25.0, 5.0000
2.84900, 2.00, 23.0, 4.7958
2.85100, 2.00, 17.0, 4.1231
2.85300, 2.00, 24.0, 4.8990
2.85500, 2.00, 29.0, 5.3852
2.85700, 2.00, 28.0, 5.2915
2.85900, 2.00, 21.0, 4.5826
2.86100, 2.00, 18.0, 4.2426
2.86300, 2.00, 10.0, 3.1623
2.86500, 2.00, 23.0, 4.7958
2.86700, 2.00, 13.0, 3.6056
2.86900, 2.00, 20.0, 4.4721
2.87100, 2.00, 24.0, 4.8990
2.87300, 2.00, 23.0, 4.7958
2.87500, 2.00, 25.0, 5.0000
2.87700, 2.00, 25.0, 5.0000
2.87900, 2.00, 22.0, 4.6904
2.88100, 2.00, 13.0, 3.6056
2.88300, 2.00, 17.0, 4.1231
2.88500, 2.00, 11.0, 3.3166
2.88700, 2.00, 16.0, 4.0000
2.88900, 2.00, 20.0, 4.4721
2.89100, 2.00, 11.0, 3.3166
2.89300, 2.00, 21.0, 4.5826
2.89500, 2.00, 13.0, 3.6056
2.89700, 2.00, 15.0, 3.8730
2.89900, 2.00, 17.0, 4.1231
2.90100, 2.00, 16.0, 4.0000
2.90300, 2.00, 17.0, 4.1231
2.90500, 2.00, 20.0, 4.4721
2.90700, 2.00, 15.0, 3.8730
2.90900, 2.00, 16.0, 4.0000
2.91100, 2.00, 13.0, 3.6056
2.91300, 2.00, 15.0, 3.8730
2.91500, 2.00, 15.0, 3.8730
2.91700, 2.00, 11.0, 3.3166
2.91900, 2.00, 14.0, 3.7417
2.92100, 2.00, 14.0, 3.7417
2.92300, 2.00, 13.0, 3.6056
2.92500, 2.00, 13.0, 3.6056
2.92700, 2.00, 10.0, 3.1623
2.92900, 2.00, 10.0, 3.1623
2.93100, 2.00, 10.0, 3.1623
2.93300, 2.00, 16.0, 4.0000
2.93500, 2.00, 23.0, 4.7958
2.93700, 2.00, 7.0, 2.6458
2.93900, 2.00, 16.0, 4.0000
2.94100, 2.00, 14.0, 3.7417
2.94300, 2.00, 9.0, 3.0000
2.94500, 2.00, 14.0, 3.7417
2.94700, 2.00, 12.0, 3.4641
2.94900, 2.00, 13.0, 3.6056
2.95100, 2.00, 11.0, 3.3166
2.95300, 2.00, 11.0, 3.3166
2.95500, 2.00, 10.0, 3.1623
2.95700, 2.00, 6.0, 2.4495
2.95900, 2.00, 15.0, 3.8730
2.96100, 2.00, 7.0, 2.6458
2.96300, 2.00, 6.0, 2.4495
2.96500, 2.00, 8.0, 2.8284
2.96700, 2.00, 11.0, 3.3166
2.96900, 2.00, 9.0, 3.0000
2.97100, 2.00, 13.0, 3.6056
2.97300, 2.00, 7.0, 2.6458
2.97500, 2.00, 7.0, 2.6458
2.97700, 2.00, 7.0, 2.6458
2.97900, 2.00, 6.0, 2.4495
2.98100, 2.00, 4.0, 2.0000
2.98300, 2.00, 14.0, 3.7417
2.98500, 2.00, 11.0, 3.3166
2.98700, 2.00, 10.0, 3.1623
2.98900, 2.00, 9.0, 3.0000
2.99100, 2.00, 8.0, 2.8284
2.99300, 2.00, 6.0, 2.4495
2.99500, 2.00, 6.0, 2.4495
2.99700, 2.00, 18.0, 4.2426
2.99900, 2.00, 11.0, 3.3166
3.00100, 2.00, 11.0, 3.3166
3.00300, 2.00, 7.0, 2.6458
3.00500, 2.00, 8.0, 2.8284
3.00700, 2.00, 11.0, 3.3166
3.00900, 2.00, 12.0, 3.4641
3.01100, 2.00, 9.0, 3.0000
3.01300, 2.00, 5.0, 2.2361
3.01500, 2.00, 13.0, 3.6056
3.01700, 2.00, 8.0, 2.8284
3.01900, 2.00, 9.0, 3.0000
3.02100, 2.00, 13.0, 3.6056
3.02300, 2.00, 7.0, 2.6458
3.02500, 2.00, 3.0, 1.7321
3.02700, 2.00, 8.0, 2.8284
3.02900, 2.00, 6.0, 2.4495
3.03100, 2.00, 12.0, 3.4641
3.03300, 2.00, 6.0, 2.4495
3.03500, 2.00, 7.0, 2.6458
3.03700, 2.00, 7.0, 2.6458
3.03900, 2.00, 10.0, 3.1623
3.04100, 2.00, 8.0, 2.8284
3.04300, 2.00, 2.0, 1.4142
3.04500, 2.00, 7.0, 2.6458
3.04700, 2.00, 4.0, 2.0000
3.04900, 2.00, 7.0, 2.6458
3.05100, 2.00, 7.0, 2.6458
3.05300, 2.00, 5.0, 2.2361
3.05500, 2.00, 3.0, 1.7321
3.05700, 2.00, 4.0, 2.0000
3.05900, 2.00, 6.0, 2.4495
3.06100, 2.00, 9.0, 3.0000
3.06300, 2.00, 10.0, 3.1623
3.06500, 2.00, 10.0, 3.1623
3.06700, 2.00, 5.0, 2.2361
3.06900, 2.00, 6.0, 2.4495
3.07100, 2.00, 6.0, 2.4495
3.07300, 2.00, 9.0, 3.0000
3.07500, 2.00, 1.0, 1.0000
3.07700, 2.00, 6.0, 2.4495
3.07900, 2.00, 6.0, 2.4495
3.08100, 2.00, 4.0, 2.0000
3.08300, 2.00, 3.0, 1.7321
3.08500, 2.00, 6.0, 2.4495
3.08700, 2.00, 5.0, 2.2361
3.08900, 2.00, 3.0, 1.7321
3.09100, 2.00, 1.0, 1.0000
3.09300, 2.00, 6.0, 2.4495
3.09500, 2.00, 9.0, 3.0000
3.09700, 2.00, 4.0, 2.0000
3.09900, 2.00, 5.0, 2.2361
3.10100, 2.00, 7.0, 2.6458
3.10300, 2.00, 8.0, 2.8284
3.10500, 2.00, 2.0, 1.4142
3.10700, 2.00, 6.0, 2.4495
3.10900, 2.00, 10.0, 3.1623
3.11100, 2.00, 5.0, 2.2361
3.11300, 2.00, 8.0, 2.8284
3.11500, 2.00, 8.0, 2.8284
3.11700, 2.00, 4.0, 2.0000
3.11900, 2.00, 3.0, 1.7321
3.12100, 2.00, 4.0, 2.0000
3.12300, 2.00, 3.0, 1.7321
3.12500, 2.00, 2.0, 1.4142
3.12700, 2.00, 6.0, 2.4495
3.12900, 2.00, 6.0, 2.4495
3.13100, 2.00, 5.0, 2.2361
3.13300, 2.00, 6.0, 2.4495
3.13500, 2.00, 5.0, 2.2361
3.13700, 2.00, 6.0, 2.4495
3.13900, 2.00, 1.0, 1.0000
3.14100, 2.00, 6.0, 2.4495
3.14300, 2.00, 2.0, 1.4142
3.14500, 2.00, 8.0, 2.8284
3.14700, 2.00, 5.0, 2.2361
3.14900, 2.00, 5.0, 2.2361
3.15100, 2.00, 1.0, 1.0000
3.15300, 2.00, 2.0, 1.4142
3.15500, 2.00, 5.0, 2.2361
3.15700, 2.00, 2.0, 1.4142
3.15900, 2.00, 3.0, 1.7321
3.16100, 2.00, 6.0, 2.4495
3.16300, 2.00, 2.0, 1.4142
3.16500, 2.00, 3.0, 1.7321
3.16700, 2.00, 2.0, 1.4142
3.16900, 2.00, 1.0, 1.0000
3.17100, 2.00, 3.0, 1.7321
3.17300, 2.00, 6.0, 2.4495
3.17500, 2.00, 1.0, 1.0000
3.17700, 2.00, 2.0, 1.4142
3.17900, 2.00, 2.0, 1.4142
3.18100, 2.00, 3.0, 1.7321
3.18300, 2.00, 3.0, 1.7321
3.18500, 2.00, 4.0, 2.0000
3.18700, 2.00, 3.0, 1.7321
3.18900, 2.00, 3.0, 1.7321
3.19100, 2.00, 1.0, 1.0000
3.19300, 2.00, 2.0, 1.4142
3.19500, 2.00, 8.0, 2.8284
3.19700, 2.00, 6.0, 2.4495
3.19900, 2.00, 3.0, 1.7321
3.20100, 2.00, 4.0, 2.0000
3.20300, 2.00, 3.0, 1.7321
3.20500, 2.00, 1.0, 1.0000
3.20700, 2.00, 1.0, 1.0000
3.20900, 2.00, 1.0, 1.0000
3.21100, 2.00, 2.0, 1.4142
3.21300, 2.00, 3.0, 1.7321
3.21500, 2.00, 5.0, 2.2361
3.21700, 2.00, 5.0, 2.2361
3.21900, 2.00, 4.0, 2.0000
3.22100, 2.00, 4.0, 2.0000
3.22300, 2.00, 6.0, 2.4495
3.22500, 2.00, 2.0, 1.4142
3.22700, 2.00, 3.0, 1.7321
3.22900, 2.00, 5.0, 2.2361
3.23100, 2.00, 4.0, 2.0000
3.23300, 2.00, 1.0, 1.0000
3.23500, 2.00, 2.0, 1.4142
3.23700, 2.00, 3.0, 1.7321
3.23900, 2.00, 1.0, 1.0000
3.24100, 2.00, 4.0, 2.0000
3.24300, 2.00, 3.0, 1.7321
3.24500, 2.00, 3.0, 1.7321
3.24700, 2.00, 2.0, 1.4142
3.24900, 2.00, 4.0, 2.0000
3.25100, 2.00, 3.0, 1.7321
3.25300, 2.00, 3.0, 1.7321
3.25500, 2.00, 3.0, 1.7321
3.25700, 2.00, 3.0, 1.7321
3.25900, 2.00, 1.0, 1.0000
3.26100, 2.00, 0.0, 0.0000
3.26300, 2.00, 1.0, 1.0000
3.26500, 2.00, 3.0, 1.7321
3.26700, 2.00, 3.0, 1.7321
3.26900, 2.00, 3.0, 1.7321
3.27100, 2.00, 4.0, 2.0000
3.27300, 2.00, 4.0, 2.0000
3.27500, 2.00, 7.0, 2.6458
3.27700, 2.00, 2.0, 1.4142
3.27900, 2.00, 4.0, 2.0000
3.28100, 2.00, 1.0, 1.0000
3.28300, 2.00, 5.0, 2.2361
3.28500, 2.00, 2.0, 1.4142
3.28700, 2.00, 5.0, 2.2361
3.28900, 2.00, 2.0, 1.4142
3.29100, 2.00, 0.0, 0.0000
3.29300, 2.00, 1.0, 1.0000
3.29500, 2.00, 0.0, 0.0000
3.29700, 2.00, 3.0, 1.7321
3.29900, 2.00, 3.0, 1.7321
3.30100, 2.00, 1.0, 1.0000
3.30300, 2.00, 2.0, 1.4142
3.30500, 2.00, 2.0, 1.4142
3.30700, 2.00, 3.0, 1.7321
3.30900, 2.00, 1.0, 1.0000
3.31100, 2.00, 4.0, 2.0000
3.31300, 2.00, 2.0, 1.4142
3.31500, 2.00, 3.0, 1.7321
3.31700, 2.00, 5.0, 2.2361
3.31900, 2.00, 1.0, 1.0000
3.32100, 2.00, 2.0, 1.4142
3.32300, 2.00, 3.0, 1.7321
3.32500, 2.00, 4.0, 2.0000
3.32700, 2.00, 3.0, 1.7321
3.32900, 2.00, 3.0, 1.7321
3.33100, 2.00, 5.0, 2.2361
3.33300, 2.00, 1.0, 1.0000
3.33500, 2.00, 2.0, 1.4142
3.33700, 2.00, 2.0, 1.4142
3.33900, 2.00, 6.0, 2.4495
3.34100, 2.00, 7.0, 2.6458
3.34300, 2.00, 2.0, 1.4142
3.34500, 2.00, 4.0, 2.0000
3.34700, 2.00, 3.0, 1.7321
3.34900, 2.00, 3.0, 1.7321
3.35100, 2.00, 1.0, 1.0000
3.35300, 2.00, 4.0, 2.0000
3.35500, 2.00, 5.0, 2.2361
3.35700, 2.00, 1.0, 1.0000
3.35900, 2.00, 3.0, 1.7321
3.36100, 2.00, 3.0, 1.7321
3.36300, 2.00, 6.0, 2.4495
3.36500, 2.00, 0.0, 0.0000
3.36700, 2.00, 5.0, 2.2361
3.36900, 2.00, 5.0, 2.2361
3.37100, 2.00, 3.0, 1.7321
3.37300, 2.00, 2.0, 1.4142
3.37500, 2.00, 2.0, 1.4142
3.37700, 2.00, 4.0, 2.0000
3.37900, 2.00, 2.0, 1.4142
3.38100, 2.00, 4.0, 2.0000
3.38300, 2.00, 4.0, 2.0000
3.38500, 2.00, 4.0, 2.0000
3.38700, 2.00, 4.0, 2.0000
3.38900, 2.00, 5.0, 2.2361
3.39100, 2.00, 3.0, 1.7321
3.39300, 2.00, 4.0, 2.0000
3.39500, 2.00, 2.0, 1.4142
3.39700, 2.00, 3.0, 1.7321
3.39900, 2.00, 5.0, 2.2361
3.40100, 2.00, 5.0, 2.2361
3.40300, 2.00, 2.0, 1.4142
3.40500, 2.00, 2.0, 1.4142
3.40700, 2.00, 4.0, 2.0000
3.40900, 2.00, 3.0, 1.7321
3.41100, 2.00, 2.0, 1.4142
3.41300, 2.00, 2.0, 1.4142
3.41500, 2.00, 1.0, 1.0000
3.41700, 2.00, 3.0, 1.7321
3.41900, 2.00, 4.0, 2.0000
3.42100, 2.00, 1.0, 1.0000
3.42300, 2.00, 6.0, 2.4495
3.42500, 2.00, 4.0, 2.0000
3.42700, 2.00, 0.0, 0.0000
3.42900, 2.00, 5.0, 2.2361
3.43100, 2.00, 1.0, 1.0000
3.43300, 2.00, 8.0, 2.8284
3.43500, 2.00, 8.0, 2.8284
3.43700, 2.00, 2.0, 1.4142
3.43900, 2.00, 4.0, 2.0000
3.44100, 2.00, 5.0, 2.2361
3.44300, 2.00, 5.0, 2.2361
3.44500, 2.00, 9.0, 3.0000
3.44700, 2.00, 3.0, 1.7321
3.44900, 2.00, 4.0, 2.0000
3.45100, 2.00, 3.0, 1.7321
3.45300, 2.00, 1.0, 1.0000
3.45500, 2.00, 2.0, 1.4142
3.45700, 2.00, 3.0, 1.7321
3.45900, 2.00, 1.0, 1.0000
3.46100, 2.00, 2.0, 1.4142
3.46300, 2.00, 2.0, 1.4142
3.46500, 2.00, 2.0, 1.4142
3.46700, 2.00, 2.0, 1.4142
3.46900, 2.00, 1.0, 1.0000
3.47100, 2.00, 2.0, 1.4142
3.47300, 2.00, 1.0, 1.0000
3.47500, 2.00, 4.0, 2.0000
3.47700, 2.00, 3.0, 1.7321
3.47900, 2.00, 3.0, 1.7321
3.48100, 2.00, 2.0, 1.4142
3.48300, 2.00, 4.0, 2.0000
3.48500, 2.00, 6.0, 2.4495
3.48700, 2.00, 6.0, 2.4495
3.48900, 2.00, 2.0, 1.4142
3.49100, 2.00, 4.0, 2.0000
3.49300, 2.00, 5.0, 2.2361
3.49500, 2.00, 2.0, 1.4142
3.49700, 2.00, 2.0, 1.4142
3.49900, 2.00, 3.0, 1.7321
3.50100, 2.00, 6.0, 2.4495
3.50300, 2.00, 1.0, 1.0000
3.50500, 2.00, 6.0, 2.4495
3.50700, 2.00, 2.0, 1.4142
3.50900, 2.00, 2.0, 1.4142
3.51100, 2.00, 5.0, 2.2361
3.51300, 2.00, 2.0, 1.4142
3.51500, 2.00, 4.0, 2.0000
3.51700, 2.00, 7.0, 2.6458
3.51900, 2.00, 4.0, 2.0000
3.52100, 2.00, 6.0, 2.4495
3.52300, 2.00, 4.0, 2.0000
3.52500, 2.00, 1.0, 1.0000
3.52700, 2.00, 3.0, 1.7321
3.52900, 2.00, 2.0, 1.4142
3.53100, 2.00, 7.0, 2.6458
3.53300, 2.00, 2.0, 1.4142
3.53500, 2.00, 6.0, 2.4495
3.53700, 2.00, 4.0, 2.0000
3.53900, 2.00, 5.0, 2.2361
3.54100, 2.00, 3.0, 1.7321
3.54300, 2.00, 4.0, 2.0000
3.54500, 2.00, 5.0, 2.2361
3.54700, 2.00, 6.0, 2.4495
3.54900, 2.00, 2.0, 1.4142
3.55100, 2.00, 4.0, 2.0000
3.55300, 2.00, 3.0, 1.7321
3.55500, 2.00, 4.0, 2.0000
3.55700, 2.00, 7.0, 2.6458
3.55900, 2.00, 8.0, 2.8284
3.56100, 2.00, 3.0, 1.7321
3.56300, 2.00, 6.0, 2.4495
3.56500, 2.00, 1.0, 1.0000
3.56700, 2.00, 1.0, 1.0000
3.56900, 2.00, 6.0, 2.4495
3.57100, 2.00, 7.0, 2.6458
3.57300, 2.00, 5.0, 2.2361
3.57500, 2.00, 8.0, 2.8284
3.57700, 2.00, 3.0, 1.7321
3.57900, 2.00, 2.0, 1.4142
3.58100, 2.00, 9.0, 3.0000
3.58300, 2.00, 3.0, 1.7321
3.58500, 2.00, 5.0, 2.2361
3.58700, 2.00, 5.0, 2.2361
3.58900, 2.00, 4.0, 2.0000
3.59100, 2.00, 9.0, 3.0000
3.59300, 2.00, 6.0, 2.4495
3.59500, 2.00, 5.0, 2.2361
3.59700, 2.00, 3.0, 1.7321
3.59900, 2.00, 5.0, 2.2361
3.60100, 2.00, 4.0, 2.0000
3.60300, 2.00, 10.0, 3.1623
3.60500, 2.00, 8.0, 2.8284
3.60700, 2.00, 6.0, 2.4495
3.60900, 2.00, 7.0, 2.6458
3.61100, 2.00, 8.0, 2.8284
3.61300, 2.00, 8.0, 2.8284
3.61500, 2.00, 9.0, 3.0000
3.61700, 2.00, 7.0, 2.6458
3.61900, 2.00, 6.0, 2.4495
3.62100, 2.00, 4.0, 2.0000
3.62300, 2.00, 7.0, 2.6458
3.62500, 2.00, 6.0, 2.4495
3.62700, 2.00, 7.0, 2.6458
3.62900, 2.00, 7.0, 2.6458
3.63100, 2.00, 7.0, 2.6458
3.63300, 2.00, 5.0, 2.2361
3.63500, 2.00, 12.0, 3.4641
3.63700, 2.00, 7.0, 2.6458
3.63900, 2.00, 11.0, 3.3166
3.64100, 2.00, 15.0, 3.8730
3.64300, 2.00, 15.0, 3.8730
3.64500, 2.00, 6.0, 2.4495
3.64700, 2.00, 13.0, 3.6056
3.64900, 2.00, 14.0, 3.7417
3.65100, 2.00, 10.0, 3.1623
3.65300, 2.00, 11.0, 3.3166
3.65500, 2.00, 8.0, 2.8284
3.65700, 2.00, 12.0, 3.4641
3.65900, 2.00, 10.0, 3.1623
3.66100, 2.00, 12.0, 3.4641
3.66300, 2.00, 12.0, 3.4641
3.66500, 2.00, 8.0, 2.8284
3.66700, 2.00, 6.0, 2.4495
3.66900, 2.00, 22.0, 4.6904
3.67100, 2.00, 14.0, 3.7417
3.67300, 2.00, 10.0, 3.1623
3.67500, 2.00, 18.0, 4.2426
3.67700, 2.00, 15.0, 3.8730
3.67900, 2.00, 10.0, 3.1623
3.68100, 2.00, 11.0, 3.3166
3.68300, 2.00, 19.0, 4.3589
3.68500, 2.00, 17.0, 4.1231
3.68700, 2.00, 15.0, 3.8730
3.68900, 2.00, 28.0, 5.2915
3.69100, 2.00, 21.0, 4.5826
3.69300, 2.00, 21.0, 4.5826
3.69500, 2.00, 19.0, 4.3589
3.69700, 2.00, 14.0, 3.7417
3.69900, 2.00, 18.0, 4.2426
3.70100, 2.00, 24.0, 4.8990
3.70300, 2.00, 35.0, 5.9161
3.70500, 2.00, 30.0, 5.4772
3.70700, 2.00, 41.0, 6.4031
3.70900, 2.00, 36.0, 6.0000
3.71100, 2.00, 35.0, 5.9161
3.71300, 2.00, 44.0, 6.6332
3.71500, 2.00, 43.0, 6.5574
3.71700, 2.00, 41.0, 6.4031
3.71900, 2.00, 60.0, 7.7460
3.72100, 2.00, 57.0, 7.5498
3.72300, 2.00, 54.0, 7.3485
3.72500, 2.00, 59.0, 7.6811
3.72700, 2.00, 70.0, 8.3666
3.72900, 2.00, 60.0, 7.7460
3.73100, 2.00, 64.0, 8.0000
3.73300, 2.00, 75.0, 8.6603
3.73500, 2.00, 79.0, 8.8882
3.73700, 2.00, 84.0, 9.1652
3.73900, 2.00, 81.0, 9.0000
3.74100, 2.00, 96.0, 9.7980
3.74300, 2.00, 92.0, 9.5917
3.74500, 2.00, 97.0, 9.8489
3.74700, 2.00, 111.0, 10.5357
3.74900, 2.00, 110.0, 10.4881
3.75100, 2.00, 133.0, 11.5326
3.75300, 2.00, 140.0, 11.8322
3.75500, 2.00, 185.0, 13.6015
3.75700, 2.00, 160.0, 12.6491
3.75900, 2.00, 165.0, 12.8452
3.76100, 2.00, 167.0, 12.9228
3.76300, 2.00, 188.0, 13.7113
3.76500, 2.00, 205.0, 14.3178
3.76700, 2.00, 232.0, 15.2315
3.76900, 2.00, 257.0, 16.0312
3.77100, 2.00, 278.0, 16.6733
3.77300, 2.00, 313.0, 17.6918
3.77500, 2.00, 356.0, 18.8680
3.77700, 2.00, 308.0, 17.5499
3.77900, 2.00, 293.0, 17.1172
3.78100, 2.00, 306.0, 17.4929
3.78300, 2.00, 322.0, 17.9444
3.78500, 2.00, 377.0, 19.4165
3.78700, 2.00, 451.0, 21.2368
3.78900, 2.00, 517.0, 22.7376
3.79100, 2.00, 547.0, 23.3880
3.79300, 2.00, 561.0, 23.6854
3.79500, 2.00, 525.0, 22.9129
3.79700, 2.00, 466.0, 21.5870
3.79900, 2.00, 453.0, 21.2838
3.80100, 2.00, 462.0, 21.4942
3.80300, 2.00, 493.0, 22.2036
3.80500, 2.00, 692.0, 26.3059
3.80700, 2.00, 899.0, 29.9833
3.80900, 2.00, 1153.0, 33.9559
3.81100, 2.00, 1560.0, 39.4968
3.81300, 2.00, 1810.0, 42.5441
3.81500, 2.00, 1960.0, 44.2719
3.81700, 2.00, 2188.0, 46.7761
3.81900, 2.00, 2184.0, 46.7333
3.82100, 2.00, 2185.0, 46.7440
3.82300, 2.00, 2011.0, 44.8442
3.82500, 2.00, 1840.0, 42.8952
3.82700, 2.00, 1600.0, 40.0000
3.82900, 2.00, 1326.0, 36.4143
3.83100, 2.00, 1082.0, 32.8938
3.83300, 2.00, 825.0, 28.7228
3.83500, 2.00, 621.0, 24.9199
3.83700, 2.00, 412.0, 20.2978
3.83900, 2.00, 301.0, 17.3494
3.84100, 2.00, 217.0, 14.7309
3.84300, 2.00, 130.0, 11.4018
3.84500, 2.00, 74.0, 8.6023
3.84700, 2.00, 64.0, 8.0000
3.84900, 2.00, 33.0, 5.7446
3.85100, 2.00, 37.0, 6.0828
3.85300, 2.00, 25.0, 5.0000
3.85500, 2.00, 22.0, 4.6904
3.85700, 2.00, 14.0, 3.7417
3.85900, 2.00, 16.0, 4.0000
3.86100, 2.00, 13.0, 3.6056
3.86300, 2.00, 15.0, 3.8730
3.86500, 2.00, 13.0, 3.6056
3.86700, 2.00, 10.0, 3.1623
3.86900, 2.00, 4.0, 2.0000
3.87100, 2.00, 6.0, 2.4495
3.87300, 2.00, 11.0, 3.3166
3.87500, 2.00, 14.0, 3.7417
3.87700, 2.00, 13.0, 3.6056
3.87900, 2.00, 4.0, 2.0000
3.88100, 2.00, 5.0, 2.2361
3.88300, 2.00, 13.0, 3.6056
3.88500, 2.00, 10.0, 3.1623
3.88700, 2.00, 6.0, 2.4495
3.88900, 2.00, 6.0, 2.4495
3.89100, 2.00, 9.0, 3.0000
3.89300, 2.00, 12.0, 3.4641
3.89500, 2.00, 7.0, 2.6458
3.89700, 2.00, 12.0, 3.4641
3.89900, 2.00, 5.0, 2.2361
3.90100, 2.00, 8.0, 2.8284
3.90300, 2.00, 6.0, 2.4495
3.90500, 2.00, 7.0, 2.6458
3.90700, 2.00, 9.0, 3.0000
3.90900, 2.00, 4.0, 2.0000
3.91100, 2.00, 3.0, 1.7321
3.91300, 2.00, 7.0, 2.6458
3.91500, 2.00, 3.0, 1.7321
3.91700, 2.00, 3.0, 1.7321
3.91900, 2.00, 2.0, 1.4142
3.92100, 2.00, 1.0, 1.0000
3.92300, 2.00, 1.0, 1.0000
3.92500, 2.00, 6.0, 2.4495
3.92700, 2.00, 0.0, 0.0000
3.92900, 2.00, 4.0, 2.0000
3.93100, 2.00, 5.0, 2.2361
3.93300, 2.00, 5.0, 2.2361
3.93500, 2.00, 2.0, 1.4142
3.93700, 2.00, 3.0, 1.7321
3.93900, 2.00, 3.0, 1.7321
3.94100, 2.00, 8.0, 2.8284
3.94300, 2.00, 2.0, 1.4142
3.94500, 2.00, 5.0, 2.2361
3.94700, 2.00, 1.0, 1.0000
3.94900, 2.00, 3.0, 1.7321
3.95100, 2.00, 2.0, 1.4142
3.95300, 2.00, 4.0, 2.0000
3.95500, 2.00, 2.0, 1.4142
3.95700, 2.00, 3.0, 1.7321
3.95900, 2.00, 3.0, 1.7321
3.96100, 2.00, 4.0, 2.0000
3.96300, 2.00, 2.0, 1.4142
3.96500, 2.00, 3.0, 1.7321
3.96700, 2.00, 0.0, 0.0000
3.96900, 2.00, 3.0, 1.7321
3.97100, 2.00, 2.0, 1.4142
3.97300, 2.00, 3.0, 1.7321
3.97500, 2.00, 2.0, 1.4142
3.97700, 2.00, 2.0, 1.4142
3.97900, 2.00, 2.0, 1.4142
3.98100, 2.00, 0.0, 0.0000
3.98300, 2.00, 0.0, 0.0000
3.98500, 2.00, 3.0, 1.7321
3.98700, 2.00, 2.0, 1.4142
3.98900, 2.00, 2.0, 1.4142
3.99100, 2.00, 1.0, 1.0000
3.99300, 2.00, 3.0, 1.7321
3.99500, 2.00, 1.0, 1.0000
3.99700, 2.00, 1.0, 1.0000
3.99900, 2.00, 1.0, 1.0000
4.00100, 2.00, 1.0, 1.0000
4.00300, 2.00, 2.0, 1.4142
4.00500, 2.00, 2.0, 1.4142
4.00700, 2.00, 0.0, 0.0000
4.00900, 2.00, 2.0, 1.4142
4.01100, 2.00, 1.0, 1.0000
4.01300, 2.00, 2.0, 1.4142
4.01500, 2.00, 0.0, 0.0000
4.01700, 2.00, 2.0, 1.4142
4.01900, 2.00, 2.0, 1.4142
4.02100, 2.00, 0.0, 0.0000
4.02300, 2.00, 0.0, 0.0000
4.02500, 2.00, 2.0, 1.4142
4.02700, 2.00, 3.0, 1.7321
4.02900, 2.00, 4.0, 2.0000
4.03100, 2.00, 0.0, 0.0000
4.03300, 2.00, 0.0, 0.0000
4.03500, 2.00, 2.0, 1.4142
4.03700, 2.00, 1.0, 1.0000
4.03900, 2.00, 0.0, 0.0000
4.04100, 2.00, 1.0, 1.0000
4.04300, 2.00, 0.0, 0.0000
4.04500, 2.00, 2.0, 1.4142
4.04700, 2.00, 3.0, 1.7321
4.04900, 2.00, 2.0, 1.4142
4.05100, 2.00, 2.0, 1.4142
4.05300, 2.00, 1.0, 1.0000
4.05500, 2.00, 0.0, 0.0000
4.05700, 2.00, 0.0, 0.0000
4.05900, 2.00, 1.0, 1.0000
4.06100, 2.00, 0.0, 0.0000
4.06300, 2.00, 0.0, 0.0000
4.06500, 2.00, 3.0, 1.7321
4.06700, 2.00, 2.0, 1.4142
4.06900, 2.00, 1.0, 1.0000
4.07100, 2.00, 0.0, 0.0000
4.07300, 2.00, 2.0, 1.4142
4.07500, 2.00, 1.0, 1.0000
4.07700, 2.00, 1.0, 1.0000
4.07900, 2.00, 1.0, 1.0000
4.08100, 2.00, 1.0, 1.0000
4.08300, 2.00, 1.0, 1.0000
4.08500, 2.00, 3.0, 1.7321
4.08700, 2.00, 3.0, 1.7321
4.08900, 2.00, 2.0, 1.4142
4.09100, 2.00, 3.0, 1.7321
4.09300, 2.00, 0.0, 0.0000
4.09500, 2.00, 2.0, 1.4142
4.09700, 2.00, 4.0, 2.0000
4.09900, 2.00, 2.0, 1.4142
4.10100, 2.00, 3.0, 1.7321
4.10300, 2.00, 1.0, 1.0000
4.10500, 2.00, 2.0, 1.4142
4.10700, 2.00, 1.0, 1.0000
4.10900, 2.00, 1.0, 1.0000
4.11100, 2.00, 3.0, 1.7321
4.11300, 2.00, 0.0, 0.0000
4.11500, 2.00, 1.0, 1.0000
4.11700, 2.00, 1.0, 1.0000
4.11900, 2.00, 3.0, 1.7321
4.12100, 2.00, 1.0, 1.0000
4.12300, 2.00, 3.0, 1.7321
4.12500, 2.00, 3.0, 1.7321
4.12700, 2.00, 2.0, 1.4142
4.12900, 2.00, 3.0, 1.7321
4.13100, 2.00, 1.0, 1.0000
4.13300, 2.00, 0.0, 0.0000
4.13500, 2.00, 3.0, 1.7321
4.13700, 2.00, 4.0, 2.0000
4.13900, 2.00, 2.0, 1.4142
4.14100, 2.00, 2.0, 1.4142
4.14300, 2.00, 2.0, 1.4142
4.14500, 2.00, 2.0, 1.4142
4.14700, 2.00, 1.0, 1.0000
4.14900, 2.00, 3.0, 1.7321
4.15100, 2.00, 1.0, 1.0000
4.15300, 2.00, 1.0, 1.0000
4.15500, 2.00, 0.0, 0.0000
4.15700, 2.00, 1.0, 1.0000
4.15900, 2.00, 1.0, 1.0000
4.16100, 2.00, 2.0, 1.4142
4.16300, 2.00, 1.0, 1.0000
4.16500, 2.00, 2.0, 1.4142
4.16700, 2.00, 0.0, 0.0000
4.16900, 2.00, 2.0, 1.4142
4.17100, 2.00, 2.0, 1.4142
4.17300, 2.00, 1.0, 1.0000
4.17500, 2.00, 0.0, 0.0000
4.17700, 2.00, 0.0, 0.0000
4.17900, 2.00, 2.0, 1.4142
4.18100, 2.00, 4.0, 2.0000
4.18300, 2.00, 1.0, 1.0000
4.18500, 2.00, 3.0, 1.7321
4.18700, 2.00, 6.0, 2.4495
4.18900, 2.00, 1.0, 1.0000
4.19100, 2.00, 2.0, 1.4142
4.19300, 2.00, 2.0, 1.4142
4.19500, 2.00, 2.0, 1.4142
4.19700, 2.00, 2.0, 1.4142
4.19900, 2.00, 1.0, 1.0000
4.20100, 2.00, 1.0, 1.0000
4.20300, 2.00, 1.0, 1.0000
4.20500, 2.00, 3.0, 1.7321
4.20700, 2.00, 3.0, 1.7321
4.20900, 2.00, 1.0, 1.0000
4.21100, 2.00, 1.0, 1.0000
4.21300, 2.00, 0.0, 0.0000
4.21500, 2.00, 1.0, 1.0000
4.21700, 2.00, 0.0, 0.0000
4.21900, 2.00, 0.0, 0.0000
4.22100, 2.00, 1.0, 1.0000
4.22300, 2.00, 3.0, 1.7321
4.22500, 2.00, 1.0, 1.0000
4.22700, 2.00, 2.0, 1.4142
4.22900, 2.00, 4.0, 2.0000
4.23100, 2.00, 1.0, 1.0000
4.23300, 2.00, 1.0, 1.0000
4.23500, 2.00, 1.0, 1.0000
4.23700, 2.00, 1.0, 1.0000
4.23900, 2.00, 3.0, 1.7321
4.24100, 2.00, 3.0, 1.7321
4.24300, 2.00, 1.0, 1.0000
4.24500, 2.00, 1.0, 1.0000
4.24700, 2.00, 1.0, 1.0000
4.24900, 2.00, 1.0, 1.0000
4.25100, 2.00, 0.0, 0.0000
4.25300, 2.00, 0.0, 0.0000
4.25500, 2.00, 1.0, 1.0000
4.25700, 2.00, 3.0, 1.7321
4.25900, 2.00, 1.0, 1.0000
4.26100, 2.00, 0.0, 0.0000
4.26300, 2.00, 0.0, 0.0000
4.26500, 2.00, 0.0, 0.0000
4.26700, 2.00, 4.0, 2.0000
4.26900, 2.00, 1.0, 1.0000
4.27100, 2.00, 3.0, 1.7321
4.27300, 2.00, 0.0, 0.0000
4.27500, 2.00, 0.0, 0.0000
4.27700, 2.00, 1.0, 1.0000
4.27900, 2.00, 2.0, 1.4142
4.28100, 2.00, 2.0, 1.4142
4.28300, 2.00, 1.0, 1.0000
4.28500, 2.00, 2.0, 1.4142
4.28700, 2.00, 0.0, 0.0000
4.28900, 2.00, 2.0, 1.4142
4.29100, 2.00, 0.0, 0.0000
4.29300, 2.00, 1.0, 1.0000
4.29500, 2.00, 3.0, 1.7321
4.29700, 2.00, 1.0, 1.0000
4.29900, 2.00, 3.0, 1.7321
4.30100, 2.00, 1.0, 1.0000
4.30300, 2.00, 2.0, 1.4142
4.30500, 2.00, 1.0, 1.0000
4.30700, 2.00, 1.0, 1.0000
4.30900, 2.00, 2.0, 1.4142
4.31100, 2.00, 2.0, 1.4142
4.31300, 2.00, 0.0, 0.0000
4.31500, 2.00, 4.0, 2.0000
4.31700, 2.00, 1.0, 1.0000
4.31900, 2.00, 1.0, 1.0000
4.32100, 2.00, 2.0, 1.4142
4.32300, 2.00, 1.0, 1.0000
4.32500, 2.00, 1.0, 1.0000
4.32700, 2.00, 2.0, 1.4142
4.32900, 2.00, 2.0, 1.4142
4.33100, 2.00, 0.0, 0.0000
4.33300, 2.00, 2.0, 1.4142
4.33500, 2.00, 1.0, 1.0000
4.33700, 2.00, 2.0, 1.4142
4.33900, 2.00, 2.0, 1.4142
4.34100, 2.00, 0.0, 0.0000
4.34300, 2.00, 1.0, 1.0000
4.34500, 2.00, 1.0, 1.0000
4.34700, 2.00, 2.0, 1.4142
4.34900, 2.00, 2.0, 1.4142
4.35100, 2.00, 4.0, 2.0000
4.35300, 2.00, 3.0, 1.7321
4.35500, 2.00, 1.0, 1.0000
4.35700, 2.00, 2.0, 1.4142
4.35900, 2.00, 3.0, 1.7321
4.36100, 2.00, 0.0, 0.0000
4.36300, 2.00, 1.0, 1.0000
4.36500, 2.00, 1.0, 1.0000
4.36700, 2.00, 1.0, 1.0000
4.36900, 2.00, 1.0, 1.0000
4.37100, 2.00, 0.0, 0.0000
4.37300, 2.00, 2.0, 1.4142
4.37500, 2.00, 3.0, 1.7321
4.37700, 2.00, 1.0, 1.0000
4.37900, 2.00, 2.0, 1.4142
4.38100, 2.00, 1.0, 1.0000
4.38300, 2.00, 2.0, 1.4142
4.38500, 2.00, 0.0, 0.0000
4.38700, 2.00, 2.0, 1.4142
4.38900, 2.00, 0.0, 0.0000
4.39100, 2.00, 2.0, 1.4142
4.39300, 2.00, 0.0, 0.0000
4.39500, 2.00, 0.0, 0.0000
4.39700, 2.00, 2.0, 1.4142
4.39900, 2.00, 0.0, 0.0000
4.40100, 2.00, 2.0, 1.4142
4.40300, 2.00, 2.0, 1.4142
4.40500, 2.00, 0.0, 0.0000
4.40700, 2.00, 0.0, 0.0000
4.40900, 2.00, 2.0, 1.4142
4.41100, 2.00, 3.0, 1.7321
4.41300, 2.00, 1.0, 1.0000
4.41500, 2.00, 1.0, 1.0000
4.41700, 2.00, 1.0, 1.0000
4.41900, 2.00, 0.0, 0.0000
4.42100, 2.00, 4.0, 2.0000
4.42300, 2.00, 3.0, 1.7321
4.42500, 2.00, 0.0, 0.0000
4.42700, 2.00, 3.0, 1.7321
4.42900, 2.00, 4.0, 2.0000
4.43100, 2.00, 0.0, 0.0000
4.43300, 2.00, 1.0, 1.0000
4.43500, 2.00, 0.0, 0.0000
4.43700, 2.00, 1.0, 1.0000
4.43900, 2.00, 0.0, 0.0000
4.44100, 2.00, 1.0, 1.0000
4.44300, 2.00, 1.0, 1.0000
4.44500, 2.00, 1.0, 1.0000
4.44700, 2.00, 1.0, 1.0000
4.44900, 2.00, 1.0, 1.0000
4.45100, 2.00, 1.0, 1.0000
4.45300, 2.00, 5.0, 2.2361
4.45500, 2.00, 2.0, 1.4142
4.45700, 2.00, 5.0, 2.2361
4.45900, 2.00, 2.0, 1.4142
4.46100, 2.00, 1.0, 1.0000
4.46300, 2.00, 1.0, 1.0000
4.46500, 2.00, 1.0, 1.0000
4.46700, 2.00, 2.0, 1.4142
4.46900, 2.00, 2.0, 1.4142
4.47100, 2.00, 1.0, 1.0000
4.47300, 2.00, 2.0, 1.4142
4.47500, 2.00, 2.0, 1.4142
4.47700, 2.00, 4.0, 2.0000
4.47900, 2.00, 2.0, 1.4142
4.48100, 2.00, 0.0, 0.0000
4.48300, 2.00, 1.0, 1.0000
4.48500, 2.00, 1.0, 1.0000
4.48700, 2.00, 3.0, 1.7321
4.48900, 2.00, 3.0, 1.7321
4.49100, 2.00, 2.0, 1.4142
4.49300, 2.00, 2.0, 1.4142
4.49500, 2.00, 0.0, 0.0000
4.49700, 2.00, 1.0, 1.0000
4.49900, 2.00, 0.0, 0.0000
4.50100, 2.00, 0.0, 0.0000
4.50300, 2.00, 1.0, 1.0000
4.50500, 2.00, 3.0, 1.7321
4.50700, 2.00, 1.0, 1.0000
4.50900, 2.00, 2.0, 1.4142
4.51100, 2.00, 0.0, 0.0000
4.51300, 2.00, 0.0, 0.0000
4.51500, 2.00, 1.0, 1.0000
4.51700, 2.00, 1.0, 1.0000
4.51900, 2.00, 0.0, 0.0000
4.52100, 2.00, 3.0, 1.7321
4.52300, 2.00, 4.0, 2.0000
4.52500, 2.00, 0.0, 0.0000
4.52700, 2.00, 2.0, 1.4142
4.52900, 2.00, 4.0, 2.0000
4.53100, 2.00, 4.0, 2.0000
4.53300, 2.00, 0.0, 0.0000
4.53500, 2.00, 4.0, 2.0000
4.53700, 2.00, 1.0, 1.0000
4.53900, 2.00, 3.0, 1.7321
4.54100, 2.00, 0.0, 0.0000
4.54300, 2.00, 3.0, 1.7321
4.54500, 2.00, 1.0, 1.0000
4.54700, 2.00, 1.0, 1.0000
4.54900, 2.00, 1.0, 1.0000
4.55100, 2.00, 2.0, 1.4142
4.55300, 2.00, 2.0, 1.4142
4.55500, 2.00, 0.0, 0.0000
4.55700, 2.00, 0.0, 0.0000
4.55900, 2.00, 2.0, 1.4142
4.56100, 2.00, 2.0, 1.4142
4.56300, 2.00, 2.0, 1.4142
4.56500, 2.00, 2.0, 1.4142
4.56700, 2.00, 2.0, 1.4142
4.56900, 2.00, 2.0, 1.4142
4.57100, 2.00, 3.0, 1.7321
4.57300, 2.00, 1.0, 1.0000
4.57500, 2.00, 0.0, 0.0000
4.57700, 2.00, 0.0, 0.0000
4.57900, 2.00, 2.0, 1.4142
4.58100, 2.00, 2.0, 1.4142
4.58300, 2.00, 0.0, 0.0000
4.58500, 2.00, 3.0, 1.7321
4.58700, 2.00, 0.0, 0.0000
4.58900, 2.00, 1.0, 1.0000
4.59100, 2.00, 0.0, 0.0000
4.59300, 2.00, 1.0, 1.0000
4.59500, 2.00, 2.0, 1.4142
4.59700, 2.00, 0.0, 0.0000
4.59900, 2.00, 1.0, 1.0000
4.60100, 2.00, 1.0, 1.0000
4.60300, 2.00, 1.0, 1.0000
4.60500, 2.00, 1.0, 1.0000
4.60700, 2.00, 1.0, 1.0000
4.60900, 2.00, 1.0, 1.0000
4.61100, 2.00, 1.0, 1.0000
4.61300, 2.00, 0.0, 0.0000
4.61500, 2.00, 1.0, 1.0000
4.61700, 2.00, 1.0, 1.0000
4.61900, 2.00, 1.0, 1.0000
4.62100, 2.00, 2.0, 1.4142
4.62300, 2.00, 2.0, 1.4142
4.62500, 2.00, 0.0, 0.0000
4.62700, 2.00, 2.0, 1.4142
4.62900, 2.00, 3.0, 1.7321
4.63100, 2.00, 1.0, 1.0000
4.63300, 2.00, 2.0, 1.4142
4.63500, 2.00, 1.0, 1.0000
4.63700, 2.00, 2.0, 1.4142
4.63900, 2.00, 1.0, 1.0000
4.64100, 2.00, 3.0, 1.7321
4.64300, 2.00, 2.0, 1.4142
4.64500, 2.00, 0.0, 0.0000
4.64700, 2.00, 1.0, 1.0000
4.64900, 2.00, 0.0, 0.0000
4.65100, 2.00, 1.0, 1.0000
4.65300, 2.00, 2.0, 1.4142
4.65500, 2.00, 1.0, 1.0000
4.65700, 2.00, 2.0, 1.4142
4.65900, 2.00, 1.0, 1.0000
4.66100, 2.00, 0.0, 0.0000
4.66300, 2.00, 1.0, 1.0000
4.66500, 2.00, 4.0, 2.0000
4.66700, 2.00, 0.0, 0.0000
4.66900, 2.00, 1.0, 1.0000
4.67100, 2.00, 1.0, 1.0000
4.67300, 2.00, 1.0, 1.0000
4.67500, 2.00, 0.0, 0.0000
4.67700, 2.00, 1.0, 1.0000
4.67900, 2.00, 1.0, 1.0000
4.68100, 2.00, 0.0, 0.0000
4.68300, 2.00, 0.0, 0.0000
4.68500, 2.00, 0.0, 0.0000
4.68700, 2.00, 3.0, 1.7321
4.68900, 2.00, 0.0, 0.0000
4.69100, 2.00, 3.0, 1.7321
4.69300, 2.00, 1.0, 1.0000
4.69500, 2.00, 2.0, 1.4142
4.69700, 2.00, 0.0, 0.0000
4.69900, 2.00, 2.0, 1.4142
4.70100, 2.00, 1.0, 1.0000
4.70300, 2.00, 1.0, 1.0000
4.70500, 2.00, 1.0, 1.0000
4.70700, 2.00, 2.0, 1.4142
4.70900, 2.00, 1.0, 1.0000
4.71100, 2.00, 0.0, 0.0000
4.71300, 2.00, 3.0, 1.7321
4.71500, 2.00, 2.0, 1.4142
4.71700, 2.00, 1.0, 1.0000
4.71900, 2.00, 0.0, 0.0000
4.72100, 2.00, 0.0, 0.0000
4.72300, 2.00, 0.0, 0.0000
4.72500, 2.00, 0.0, 0.0000
4.72700, 2.00, 1.0, 1.0000
4.72900, 2.00, 2.0, 1.4142
4.73100, 2.00, 2.0, 1.4142
4.73300, 2.00, 2.0, 1.4142
4.73500, 2.00, 0.0, 0.0000
4.73700, 2.00, 0.0, 0.0000
4.73900, 2.00, 1.0, 1.0000
4.74100, 2.00, 2.0, 1.4142
4.74300, 2.00, 0.0, 0.0000
4.74500, 2.00, 3.0, 1.7321
4.74700, 2.00, 4.0, 2.0000
4.74900, 2.00, 2.0, 1.4142
4.75100, 2.00, 3.0, 1.7321
4.75300, 2.00, 1.0, 1.0000
4.75500, 2.00, 4.0, 2.0000
4.75700, 2.00, 2.0, 1.4142
4.75900, 2.00, 1.0, 1.0000
4.76100, 2.00, 2.0, 1.4142
4.76300, 2.00, 2.0, 1.4142
4.76500, 2.00, 3.0, 1.7321
4.76700, 2.00, 2.0, 1.4142
4.76900, 2.00, 1.0, 1.0000
4.77100, 2.00, 1.0, 1.0000
4.77300, 2.00, 1.0, 1.0000
4.77500, 2.00, 1.0, 1.0000
4.77700, 2.00, 0.0, 0.0000
4.77900, 2.00, 1.0, 1.0000
4.78100, 2.00, 3.0, 1.7321
4.78300, 2.00, 2.0, 1.4142
4.78500, 2.00, 0.0, 0.0000
4.78700, 2.00, 2.0, 1.4142
4.78900, 2.00, 1.0, 1.0000
4.79100, 2.00, 1.0, 1.0000
4.79300, 2.00, 2.0, 1.4142
4.79500, 2.00, 1.0, 1.0000
4.79700, 2.00, 1.0, 1.0000
4.79900, 2.00, 0.0, 0.0000
4.80100, 2.00, 1.0, 1.0000
4.80300, 2.00, 2.0, 1.4142
4.80500, 2.00, 2.0, 1.4142
4.80700, 2.00, 1.0, 1.0000
4.80900, 2.00, 1.0, 1.0000
4.81100, 2.00, 2.0, 1.4142
4.81300, 2.00, 1.0, 1.0000
4.81500, 2.00, 2.0, 1.4142
4.81700, 2.00, 1.0, 1.0000
4.81900, 2.00, 1.0, 1.0000
4.82100, 2.00, 2.0, 1.4142
4.82300, 2.00, 1.0, 1.0000
4.82500, 2.00, 1.0, 1.0000
4.82700, 2.00, 1.0, 1.0000
4.82900, 2.00, 2.0, 1.4142
4.83100, 2.00, 1.0, 1.0000
4.83300, 2.00, 1.0, 1.0000
4.83500, 2.00, 1.0, 1.0000
4.83700, 2.00, 2.0, 1.4142
4.83900, 2.00, 2.0, 1.4142
4.84100, 2.00, 0.0, 0.0000
4.84300, 2.00, 1.0, 1.0000
4.84500, 2.00, 1.0, 1.0000
4.84700, 2.00, 1.0, 1.0000
4.84900, 2.00, 1.0, 1.0000
4.85100, 2.00, 1.0, 1.0000
4.85300, 2.00, 3.0, 1.7321
4.85500, 2.00, 0.0, 0.0000
4.85700, 2.00, 2.0, 1.4142
4.85900, 2.00, 1.0, 1.0000
4.86100, 2.00, 1.0, 1.0000
4.86300, 2.00, 1.0, 1.0000
4.86500, 2.00, 2.0, 1.4142
4.86700, 2.00, 1.0, 1.0000
4.86900, 2.00, 2.0, 1.4142
4.87100, 2.00, 2.0, 1.4142
4.87300, 2.00, 1.0, 1.0000
4.87500, 2.00, 1.0, 1.0000
4.87700, 2.00, 0.0, 0.0000
4.87900, 2.00, 1.0, 1.0000
4.88100, 2.00, 0.0, 0.0000
4.88300, 2.00, 2.0, 1.4142
4.88500, 2.00, 1.0, 1.0000
4.88700, 2.00, 2.0, 1.4142
4.88900, 2.00, 0.0, 0.0000
4.89100, 2.00, 2.0, 1.4142
4.89300, 2.00, 0.0, 0.0000
4.89500, 2.00, 3.0, 1.7321
4.89700, 2.00, 1.0, 1.0000
4.89900, 2.00, 1.0, 1.0000
4.90100, 2.00, 1.0, 1.0000
4.90300, 2.00, 0.0, 0.0000
4.90500, 2.00, 2.0, 1.4142
4.90700, 2.00, 1.0, 1.0000
4.90900, 2.00, 2.0, 1.4142
4.91100, 2.00, 0.0, 0.0000
4.91300, 2.00, 4.0, 2.0000
4.91500, 2.00, 3.0, 1.7321
4.91700, 2.00, 3.0, 1.7321
4.91900, 2.00, 0.0, 0.0000
4.92100, 2.00, 0.0, 0.0000
4.92300, 2.00, 2.0, 1.4142
4.92500, 2.00, 1.0, 1.0000
4.92700, 2.00, 1.0, 1.0000
4.92900, 2.00, 1.0, 1.0000
4.93100, 2.00, 0.0, 0.0000
4.93300, 2.00, 2.0, 1.4142
4.93500, 2.00, 4.0, 2.0000
4.93700, 2.00, 2.0, 1.4142
4.93900, 2.00, 1.0, 1.0000
4.94100, 2.00, 1.0, 1.0000
4.94300, 2.00, 4.0, 2.0000
4.94500, 2.00, 0.0, 0.0000
4.94700, 2.00, 2.0, 1.4142
4.94900, 2.00, 2.0, 1.4142
4.95100, 2.00, 1.0, 1.0000
4.95300, 2.00, 2.0, 1.4142
4.95500, 2.00, 1.0, 1.0000
4.95700, 2.00, 4.0, 2.0000
4.95900, 2.00, 2.0, 1.4142
4.96100, 2.00, 1.0, 1.0000
4.96300, 2.00, 4.0, 2.0000
4.96500, 2.00, 2.0, 1.4142
4.96700, 2.00, 3.0, 1.7321
4.96900, 2.00, 1.0, 1.0000
4.97100, 2.00, 4.0, 2.0000
4.97300, 2.00, 1.0, 1.0000
4.97500, 2.00, 6.0, 2.4495
4.97700, 2.00, 1.0, 1.0000
4.97900, 2.00, 3.0, 1.7321
4.98100, 2.00, 3.0, 1.7321
4.98300, 2.00, 7.0, 2.6458
4.98500, 2.00, 3.0, 1.7321
4.98700, 2.00, 1.0, 1.0000
4.98900, 2.00, 4.0, 2.0000
4.99100, 2.00, 5.0, 2.2361
4.99300, 2.00, 10.0, 3.1623
4.99500, 2.00, 4.0, 2.0000
4.99700, 2.00, 4.0, 2.0000
4.99900, 2.00, 4.0, 2.0000
5.00100, 2.00, 5.0, 2.2361
5.00300, 2.00, 6.0, 2.4495
5.00500, 2.00, 6.0, 2.4495
5.00700, 2.00, 8.0, 2.8284
5.00900, 2.00, 5.0, 2.2361
5.01100, 2.00, 8.0, 2.8284
5.01300, 2.00, 11.0, 3.3166
5.01500, 2.00, 6.0, 2.4495
5.01700, 2.00, 6.0, 2.4495
5.01900, 2.00, 9.0, 3.0000
5.02100, 2.00, 5.0, 2.2361
5.02300, 2.00, 6.0, 2.4495
5.02500, 2.00, 8.0, 2.8284
5.02700, 2.00, 15.0, 3.8730
5.02900, 2.00, 6.0, 2.4495
5.03100, 2.00, 11.0, 3.3166
5.03300, 2.00, 15.0, 3.8730
5.03500, 2.00, 10.0, 3.1623
5.03700, 2.00, 16.0, 4.0000
5.03900, 2.00, 10.0, 3.1623
5.04100, 2.00, 12.0, 3.4641
5.04300, 2.00, 16.0, 4.0000
5.04500, 2.00, 7.0, 2.6458
5.04700, 2.00, 15.0, 3.8730
5.04900, 2.00, 11.0, 3.3166
5.05100, 2.00, 16.0, 4.0000
5.05300, 2.00, 14.0, 3.7417
5.05500, 2.00, 17.0, 4.1231
5.05700, 2.00, 19.0, 4.3589
5.05900, 2.00, 20.0, 4.4721
5.06100, 2.00, 16.0, 4.0000
5.06300, 2.00, 16.0, 4.0000
5.06500, 2.00, 16.0, 4.0000
5.06700, 2.00, 13.0, 3.6056
5.06900, 2.00, 9.0, 3.0000
5.07100, 2.00, 17.0, 4.1231
5.07300, 2.00, 13.0, 3.6056
5.07500, 2.00, 28.0, 5.2915
5.07700, 2.00, 28.0, 5.2915
5.07900, 2.00, 34.0, 5.8310
5.08100, 2.00, 35.0, 5.9161
5.08300, 2.00, 52.0, 7.2111
5.08500, 2.00, 65.0, 8.0623
5.08700, 2.00, 88.0, 9.3808
5.08900, 2.00, 82.0, 9.0554
5.09100, 2.00, 68.0, 8.2462
5.09300, 2.00, 81.0, 9.0000
5.09500, 2.00, 77.0, 8.7750
5.09700, 2.00, 76.0, 8.7178
5.09900, 2.00, 70.0, 8.3666
5.10100, 2.00, 72.0, 8.4853
5.10300, 2.00, 51.0, 7.1414
5.10500, 2.00, 47.0, 6.8557
5.10700, 2.00, 25.0, 5.0000
5.10900, 2.00, 25.0, 5.0000
5.11100, 2.00, 18.0, 4.2426
5.11300, 2.00, 9.0, 3.0000
5.11500, 2.00, 9.0, 3.0000
5.11700, 2.00, 7.0, 2.6458
5.11900, 2.00, 6.0, 2.4495
5.12100, 2.00, 0.0, 0.0000
5.12300, 2.00, 2.0, 1.4142
5.12500, 2.00, 3.0, 1.7321
5.12700, 2.00, 2.0, 1.4142
5.12900, 2.00, 1.0, 1.0000
5.13100, 2.00, 0.0, 0.0000
5.13300, 2.00, 1.0, 1.0000
5.13500, 2.00, 2.0, 1.4142
5.13700, 2.00, 1.0, 1.0000
5.13900, 2.00, 1.0, 1.0000
5.14100, 2.00, 4.0, 2.0000
5.14300, 2.00, 0.0, 0.0000
5.14500, 2.00, 1.0, 1.0000
5.14700, 2.00, 1.0, 1.0000
5.14900, 2.00, 1.0, 1.0000
5.15100, 2.00, 1.0, 1.0000
5.15300, 2.00, 0.0, 0.0000
5.15500, 2.00, 2.0, 1.4142
5.15700, 2.00, 1.0, 1.0000
5.15900, 2.00, 1.0, 1.0000
5.16100, 2.00, 0.0, 0.0000
5.16300, 2.00, 3.0, 1.7321
5.16500, 2.00, 0.0, 0.0000
5.16700, 2.00, 0.0, 0.0000
5.16900, 2.00, 1.0, 1.0000
5.17100, 2.00, 1.0, 1.0000
5.17300, 2.00, 2.0, 1.4142
5.17500, 2.00, 3.0, 1.7321
5.17700, 2.00, 2.0, 1.4142
5.17900, 2.00, 0.0, 0.0000
5.18100, 2.00, 0.0, 0.0000
5.18300, 2.00, 0.0, 0.0000
5.18500, 2.00, 1.0, 1.0000
5.18700, 2.00, 1.0, 1.0000
5.18900, 2.00, 0.0, 0.0000
5.19100, 2.00, 3.0, 1.7321
5.19300, 2.00, 1.0, 1.0000
5.19500, 2.00, 1.0, 1.0000
5.19700, 2.00, 1.0, 1.0000
5.19900, 2.00, 2.0, 1.4142
5.20100, 2.00, 0.0, 0.0000
5.20300, 2.00, 1.0, 1.0000
5.20500, 2.00, 3.0, 1.7321
5.20700, 2.00, 2.0, 1.4142
5.20900, 2.00, 2.0, 1.4142
5.21100, 2.00, 4.0, 2.0000
5.21300, 2.00, 2.0, 1.4142
5.21500, 2.00, 0.0, 0.0000
5.21700, 2.00, 2.0, 1.4142
5.21900, 2.00, 2.0, 1.4142
5.22100, 2.00, 1.0, 1.0000
5.22300, 2.00, 1.0, 1.0000
5.22500, 2.00, 3.0, 1.7321
5.22700, 2.00, 1.0, 1.0000
5.22900, 2.00, 0.0, 0.0000
5.23100, 2.00, 1.0, 1.0000
5.23300, 2.00, 1.0, 1.0000
5.23500, 2.00, 2.0, 1.4142
5.23700, 2.00, 1.0, 1.0000
5.23900, 2.00, 0.0, 0.0000
5.24100, 2.00, 0.0, 0.0000
5.24300, 2.00, 2.0, 1.4142
5.24500, 2.00, 1.0, 1.0000
5.24700, 2.00, 0.0, 0.0000
5.24900, 2.00, 2.0, 1.4142
5.25100, 2.00, 2.0, 1.4142
5.25300, 2.00, 1.0, 1.0000
5.25500, 2.00, 1.0, 1.0000
5.25700, 2.00, 1.0, 1.0000
5.25900, 2.00, 0.0, 0.0000
5.26100, 2.00, 0.0, 0.0000
5.26300, 2.00, 1.0, 1.0000
5.26500, 2.00, 0.0, 0.0000
5.26700, 2.00, 0.0, 0.0000
5.26900, 2.00, 1.0, 1.0000
5.27100, 2.00, 2.0, 1.4142
5.27300, 2.00, 1.0, 1.0000
5.27500, 2.00, 2.0, 1.4142
5.27700, 2.00, 0.0, 0.0000
5.27900, 2.00, 0.0, 0.0000
5.28100, 2.00, 0.0, 0.0000
5.28300, 2.00, 2.0, 1.4142
5.28500, 2.00, 1.0, 1.0000
5.28700, 2.00, 2.0, 1.4142
5.28900, 2.00, 1.0, 1.0000
5.29100, 2.00, 0.0, 0.0000
5.29300, 2.00, 0.0, 0.0000
5.29500, 2.00, 1.0, 1.0000
5.29700, 2.00, 0.0, 0.0000
5.29900, 2.00, 2.0, 1.4142
5.30100, 2.00, 1.0, 1.0000
5.30300, 2.00, 0.0, 0.0000
5.30500, 2.00, 4.0, 2.0000
5.30700, 2.00, 2.0, 1.4142
5.30900, 2.00, 2.0, 1.4142
5.31100, 2.00, 1.0, 1.0000
5.31300, 2.00, 2.0, 1.4142
5.31500, 2.00, 1.0, 1.0000
5.31700, 2.00, 2.0, 1.4142
5.31900, 2.00, 1.0, 1.0000
5.32100, 2.00, 0.0, 0.0000
5.32300, 2.00, 2.0, 1.4142
5.32500, 2.00, 1.0, 1.0000
5.32700, 2.00, 1.0, 1.0000
5.32900, 2.00, 0.0, 0.0000
5.33100, 2.00, 2.0, 1.4142
5.33300, 2.00, 0.0, 0.0000
5.33500, 2.00, 1.0, 1.0000
5.33700, 2.00, 0.0, 0.0000
5.33900, 2.00, 1.0, 1.0000
5.34100, 2.00, 2.0, 1.4142
5.34300, 2.00, 0.0, 0.0000
5.34500, 2.00, 1.0, 1.0000
5.34700, 2.00, 0.0, 0.0000
5.34900, 2.00, 0.0, 0.0000
5.35100, 2.00, 1.0, 1.0000
5.35300, 2.00, 2.0, 1.4142
5.35500, 2.00, 0.0, 0.0000
5.35700, 2.00, 2.0, 1.4142
5.35900, 2.00, 0.0, 0.0000
5.36100, 2.00, 2.0, 1.4142
5.36300, 2.00, 0.0, 0.0000
5.36500, 2.00, 1.0, 1.0000
5.36700, 2.00, 2.0, 1.4142
5.36900, 2.00, 0.0, 0.0000
5.37100, 2.00, 1.0, 1.0000
5.37300, 2.00, 0.0, 0.0000
5.37500, 2.00, 1.0, 1.0000
5.37700, 2.00, 1.0, 1.0000
5.37900, 2.00, 0.0, 0.0000
5.38100, 2.00, 1.0, 1.0000
5.38300, 2.00, 1.0, 1.0000
5.38500, 2.00, 1.0, 1.0000
5.38700, 2.00, 0.0, 0.0000
5.38900, 2.00, 1.0, 1.0000
5.39100, 2.00, 1.0, 1.0000
5.39300, 2.00, 1.0, 1.0000
5.39500, 2.00, 1.0, 1.0000
5.39700, 2.00, 1.0, 1.0000
5.39900, 2.00, 0.0, 0.0000
5.40100, 2.00, 1.0, 1.0000
5.40300, 2.00, 2.0, 1.4142
5.40500, 2.00, 1.0, 1.0000
5.40700, 2.00, 1.0, 1.0000
5.40900, 2.00, 0.0, 0.0000
5.41100, 2.00, 0.0, 0.0000
5.41300, 2.00, 2.0, 1.4142
5.41500, 2.00, 0.0, 0.0000
5.41700, 2.00, 2.0, 1.4142
5.41900, 2.00, 2.0, 1.4142
5.42100, 2.00, 0.0, 0.0000
5.42300, 2.00, 1.0, 1.0000
5.42500, 2.00, 1.0, 1.0000
5.42700, 2.00, 1.0, 1.0000
5.42900, 2.00, 0.0, 0.0000
5.43100, 2.00, 1.0, 1.0000
5.43300, 2.00, 2.0, 1.4142
5.43500, 2.00, 1.0, 1.0000
5.43700, 2.00, 3.0, 1.7321
5.43900, 2.00, 2.0, 1.4142
5.44100, 2.00, 0.0, 0.0000
5.44300, 2.00, 2.0, 1.4142
5.44500, 2.00, 2.0, 1.4142
5.44700, 2.00, 2.0, 1.4142
5.44900, 2.00, 2.0, 1.4142
5.45100, 2.00, 2.0, 1.4142
5.45300, 2.00, 0.0, 0.0000
5.45500, 2.00, 1.0, 1.0000
5.45700, 2.00, 2.0, 1.4142
5.45900, 2.00, 2.0, 1.4142
5.46100, 2.00, 1.0, 1.0000
5.46300, 2.00, 1.0, 1.0000
5.46500, 2.00, 0.0, 0.0000
5.46700, 2.00, 1.0, 1.0000
5.46900, 2.00, 0.0, 0.0000
5.47100, 2.00, 1.0, 1.0000
5.47300, 2.00, 0.0, 0.0000
5.47500, 2.00, 2.0, 1.4142
5.47700, 2.00, 1.0, 1.0000
5.47900, 2.00, 1.0, 1.0000
5.48100, 2.00, 0.0, 0.0000
5.48300, 2.00, 2.0, 1.4142
5.48500, 2.00, 2.0, 1.4142
5.48700, 2.00, 1.0, 1.0000
5.48900, 2.00, 2.0, 1.4142
5.49100, 2.00, 0.0, 0.0000
5.49300, 2.00, 1.0, 1.0000
5.49500, 2.00, 2.0, 1.4142
5.49700, 2.00, 1.0, 1.0000
5.49900, 2.00, 1.0, 1.0000
5.50100, 2.00, 1.0, 1.0000
5.50300, 2.00, 4.0, 2.0000
5.50500, 2.00, 0.0, 0.0000
5.50700, 2.00, 1.0, 1.0000
5.50900, 2.00, 2.0, 1.4142
5.51100, 2.00, 2.0, 1.4142
5.51300, 2.00, 0.0, 0.0000
5.51500, 2.00, 0.0, 0.0000
5.51700, 2.00, 2.0, 1.4142
5.51900, 2.00, 0.0, 0.0000
5.52100, 2.00, 1.0, 1.0000
5.52300, 2.00, 1.0, 1.0000
5.52500, 2.00, 1.0, 1.0000
5.52700, 2.00, 1.0, 1.0000
5.52900, 2.00, 0.0, 0.0000
5.53100, 2.00, 0.0, 0.0000
5.53300, 2.00, 2.0, 1.4142
5.53500, 2.00, 0.0, 0.0000
5.53700, 2.00, 2.0, 1.4142
5.53900, 2.00, 1.0, 1.0000
5.54100, 2.00, 2.0, 1.4142
5.54300, 2.00, 0.0, 0.0000
5.54500, 2.00, 0.0, 0.0000
5.54700, 2.00, 1.0, 1.0000
5.54900, 2.00, 0.0, 0.0000
5.55100, 2.00, 0.0, 0.0000
5.55300, 2.00, 1.0, 1.0000
5.55500, 2.00, 2.0, 1.4142
5.55700, 2.00, 0.0, 0.0000
5.55900, 2.00, 0.0, 0.0000
5.56100, 2.00, 1.0, 1.0000
5.56300, 2.00, 1.0, 1.0000
5.56500, 2.00, 0.0, 0.0000
5.56700, 2.00, 0.0, 0.0000
5.56900, 2.00, 3.0, 1.7321
5.57100, 2.00, 3.0, 1.7321
5.57300, 2.00, 2.0, 1.4142
5.57500, 2.00, 1.0, 1.0000
5.57700, 2.00, 0.0, 0.0000
5.57900, 2.00, 2.0, 1.4142
5.58100, 2.00, 0.0, 0.0000
5.58300, 2.00, 1.0, 1.0000
5.58500, 2.00, 0.0, 0.0000
5.58700, 2.00, 2.0, 1.4142
5.58900, 2.00, 0.0, 0.0000
5.59100, 2.00, 2.0, 1.4142
5.59300, 2.00, 2.0, 1.4142
5.59500, 2.00, 1.0, 1.0000
5.59700, 2.00, 0.0, 0.0000
5.59900, 2.00, 0.0, 0.0000
5.60100, 2.00, 0.0, 0.0000
5.60300, 2.00, 1.0, 1.0000
5.60500, 2.00, 0.0, 0.0000
5.60700, 2.00, 1.0, 1.0000
5.60900, 2.00, 1.0, 1.0000
5.61100, 2.00, 0.0, 0.0000
5.61300, 2.00, 0.0, 0.0000
5.61500, 2.00, 2.0, 1.4142
5.61700, 2.00, 1.0, 1.0000
5.61900, 2.00, 1.0, 1.0000
5.62100, 2.00, 2.0, 1.4142
5.62300, 2.00, 1.0, 1.0000
5.62500, 2.00, 0.0, 0.0000
5.62700, 2.00, 1.0, 1.0000
5.62900, 2.00, 1.0, 1.0000
5.63100, 2.00, 1.0, 1.0000
5.63300, 2.00, 3.0, 1.7321
5.63500, 2.00, 1.0, 1.0000
5.63700, 2.00, 0.0, 0.0000
5.63900, 2.00, 1.0, 1.0000
5.64100, 2.00, 2.0, 1.4142
5.64300, 2.00, 1.0, 1.0000
5.64500, 2.00, 2.0, 1.4142
5.64700, 2.00, 1.0, 1.0000
5.64900, 2.00, 0.0, 0.0000
5.65100, 2.00, 2.0, 1.4142
5.65300, 2.00, 0.0, 0.0000
5.65500, 2.00, 1.0, 1.0000
5.65700, 2.00, 0.0, 0.0000
5.65900, 2.00, 0.0, 0.0000
5.66100, 2.00, 0.0, 0.0000
5.66300, 2.00, 1.0, 1.0000
5.66500, 2.00, 0.0, 0.0000
5.66700, 2.00, 1.0, 1.0000
5.66900, 2.00, 2.0, 1.4142
5.67100, 2.00, 0.0, 0.0000
5.67300, 2.00, 0.0, 0.0000
5.67500, 2.00, 1.0, 1.0000
5.67700, 2.00, 0.0, 0.0000
5.67900, 2.00, 1.0, 1.0000
5.68100, 2.00, 0.0, 0.0000
5.68300, 2.00, 1.0, 1.0000
5.68500, 2.00, 0.0, 0.0000
5.68700, 2.00, 0.0, 0.0000
5.68900, 2.00, 1.0, 1.0000
5.69100, 2.00, 0.0, 0.0000
5.69300, 2.00, 1.0, 1.0000
5.69500, 2.00, 0.0, 0.0000
5.69700, 2.00, 2.0, 1.4142
5.69900, 2.00, 2.0, 1.4142
5.70100, 2.00, 0.0, 0.0000
5.70300, 2.00, 1.0, 1.0000
5.70500, 2.00, 0.0, 0.0000
5.70700, 2.00, 0.0, 0.0000
5.70900, 2.00, 0.0, 0.0000
5.71100, 2.00, 0.0, 0.0000
5.71300, 2.00, 0.0, 0.0000
5.71500, 2.00, 0.0, 0.0000
5.71700, 2.00, 0.0, 0.0000
5.71900, 2.00, 2.0, 1.4142
5.72100, 2.00, 0.0, 0.0000
5.72300, 2.00, 1.0, 1.0000
5.72500, 2.00, 0.0, 0.0000
5.72700, 2.00, 2.0, 1.4142
5.72900, 2.00, 1.0, 1.0000
5.73100, 2.00, 0.0, 0.0000
5.73300, 2.00, 1.0, 1.0000
5.73500, 2.00, 3.0, 1.7321
5.73700, 2.00, 1.0, 1.0000
5.73900, 2.00, 1.0, 1.0000
5.74100, 2.00, 0.0, 0.0000
5.74300, 2.00, 0.0, 0.0000
5.74500, 2.00, 2.0, 1.4142
5.74700, 2.00, 4.0, 2.0000
5.74900, 2.00, 2.0, 1.4142
5.75100, 2.00, 0.0, 0.0000
5.75300, 2.00, 0.0, 0.0000
5.75500, 2.00, 1.0, 1.0000
5.75700, 2.00, 1.0, 1.0000
5.75900, 2.00, 1.0, 1.0000
5.76100, 2.00, 1.0, 1.0000
5.76300, 2.00, 1.0, 1.0000
5.76500, 2.00, 1.0, 1.0000
5.76700, 2.00, 1.0, 1.0000
5.76900, 2.00, 1.0, 1.0000
5.77100, 2.00, 3.0, 1.7321
5.77300, 2.00, 0.0, 0.0000
5.77500, 2.00, 2.0, 1.4142
5.77700, 2.00, 0.0, 0.0000
5.77900, 2.00, 0.0, 0.0000
5.78100, 2.00, 0.0, 0.0000
5.78300, 2.00, 0.0, 0.0000
5.78500, 2.00, 1.0, 1.0000
5.78700, 2.00, 1.0, 1.0000
5.78900, 2.00, 0.0, 0.0000
5.79100, 2.00, 0.0, 0.0000
5.79300, 2.00, 0.0, 0.0000
5.79500, 2.00, 1.0, 1.0000
5.79700, 2.00, 0.0, 0.0000
5.79900, 2.00, 0.0, 0.0000
5.80100, 2.00, 0.0, 0.0000
5.80300, 2.00, 0.0, 0.0000
5.80500, 2.00, 2.0, 1.4142
5.80700, 2.00, 0.0, 0.0000
5.80900, 2.00, 1.0, 1.0000
5.81100, 2.00, 0.0, 0.0000
5.81300, 2.00, 1.0, 1.0000
5.81500, 2.00, 2.0, 1.4142
5.81700, 2.00, 2.0, 1.4142
5.81900, 2.00, 0.0, 0.0000
5.82100, 2.00, 1.0, 1.0000
5.82300, 2.00, 2.0, 1.4142
5.82500, 2.00, 0.0, 0.0000
5.82700, 2.00, 0.0, 0.0000
5.82900, 2.00, 0.0, 0.0000
5.83100, 2.00, 0.0, 0.0000
5.83300, 2.00, 2.0, 1.4142
5.83500, 2.00, 1.0, 1.0000
5.83700, 2.00, 0.0, 0.0000
5.83900, 2.00, 1.0, 1.0000
5.84100, 2.00, 1.0, 1.0000
5.84300, 2.00, 2.0, 1.4142
5.84500, 2.00, 1.0, 1.0000
5.84700, 2.00, 0.0, 0.0000
5.84900, 2.00, 1.0, 1.0000
5.85100, 2.00, 1.0, 1.0000
5.85300, 2.00, 1.0, 1.0000
5.85500, 2.00, 2.0, 1.4142
5.85700, 2.00, 0.0, 0.0000
5.85900, 2.00, 2.0, 1.4142
5.86100, 2.00, 1.0, 1.0000
5.86300, 2.00, 1.0, 1.0000
5.86500, 2.00, 0.0, 0.0000
5.86700, 2.00, 1.0, 1.0000
5.86900, 2.00, 0.0, 0.0000
5.87100, 2.00, 1.0, 1.0000
5.87300, 2.00, 1.0, 1.0000
5.87500, 2.00, 0.0, 0.0000
5.87700, 2.00, 1.0, 1.0000
5.87900, 2.00, 0.0, 0.0000
5.88100, 2.00, 1.0, 1.0000
5.88300, 2.00, 1.0, 1.0000
5.88500, 2.00, 0.0, 0.0000
5.88700, 2.00, 2.0, 1.4142
5.88900, 2.00, 1.0, 1.0000
5.89100, 2.00, 2.0, 1.4142
5.89300, 2.00, 2.0, 1.4142
5.89500, 2.00, 2.0, 1.4142
5.89700, 2.00, 0.0, 0.0000
5.89900, 2.00, 2.0, 1.4142
5.90100, 2.00, 3.0, 1.7321
5.90300, 2.00, 0.0, 0.0000
5.90500, 2.00, 1.0, 1.0000
5.90700, 2.00, 0.0, 0.0000
5.90900, 2.00, 0.0, 0.0000
5.91100, 2.00, 0.0, 0.0000
5.91300, 2.00, 3.0, 1.7321
5.91500, 2.00, 0.0, 0.0000
5.91700, 2.00, 0.0, 0.0000
5.91900, 2.00, 0.0, 0.0000
5.92100, 2.00, 1.0, 1.0000
5.92300, 2.00, 1.0, 1.0000
5.92500, 2.00, 1.0, 1.0000
5.92700, 2.00, 0.0, 0.0000
5.92900, 2.00, 3.0, 1.7321
5.93100, 2.00, 1.0, 1.0000
5.93300, 2.00, 1.0, 1.0000
5.93500, 2.00, 1.0, 1.0000
5.93700, 2.00, 1.0, 1.0000
5.93900, 2.00, 2.0, 1.4142
5.94100, 2.00, 1.0, 1.0000
5.94300, 2.00, 1.0, 1.0000
5.94500, 2.00, 2.0, 1.4142
5.94700, 2.00, 3.0, 1.7321
5.94900, 2.00, 1.0, 1.0000
5.95100, 2.00, 2.0, 1.4142
5.95300, 2.00, 0.0, 0.0000
5.95500, 2.00, 0.0, 0.0000
5.95700, 2.00, 1.0, 1.0000
5.95900, 2.00, 2.0, 1.4142
5.96100, 2.00, 0.0, 0.0000
5.96300, 2.00, 1.0, 1.0000
5.96500, 2.00, 0.0, 0.0000
5.96700, 2.00, 0.0, 0.0000
5.96900, 2.00, 1.0, 1.0000
5.97100, 2.00, 0.0, 0.0000
5.97300, 2.00, 1.0, 1.0000
5.97500, 2.00, 1.0, 1.0000
5.97700, 2.00, 0.0, 0.0000
5.97900, 2.00, 1.0, 1.0000
5.98100, 2.00, 0.0, 0.0000
5.98300, 2.00, 0.0, 0.0000
5.98500, 2.00, 6.0, 2.4495
5.98700, 2.00, 0.0, 0.0000
5.98900, 2.00, 3.0, 1.7321
5.99100, 2.00, 1.0, 1.0000
5.99300, 2.00, 2.0, 1.4142
5.99500, 2.00, 3.0, 1.7321
5.99700, 2.00, 2.0, 1.4142
5.99900, 2.00, 1.0, 1.0000
